***Scan Config Information***,,,,,,,***Reference Scan Information***,,,,,,,,
Scan Config Name:,FolHerbario,,,,,,Scan Config Name:,Local New Reference,,,,,,,
Scan Config Type:,Slew,Num Section:,1,,,,Scan Config Type:,Slew,Num Section:,1,,,,,
Section Config Type:,Column,,,,,,Section Config Type:,Column,,,,,,,
Start Wavelength (nm):,900,,,,,,Start Wavelength (nm):,900,,,,,,,
End Wavelength (nm):,1700,,,,,,End Wavelength (nm):,1700,,,,,,,
Pattern Width (nm):,7.03,,,,,,Pattern Width (nm):,7.03,,,,,,,
Exposure (ms):,0.635,,,,,,Exposure (ms):,0.635,,,,,,,
Digital Resolution:,228,,,,,,Digital Resolution:,228,,,,,,,
Num Repeats:,20,,,,,,Num Repeats:,20,,,,,,,
PGA Gain:,64,(FixedPGA),,,,,PGA Gain:,64,(AutoPGA),,,,,,
System Temp (C):,37.05,,,,,,System Temp (C):,36.71,,,,,,,
Humidity (%):,53.4,,,,,,Humidity (%):,54.55,,,,,,,
Lamp ADC:,3066,3082,829,851,,,Lamp ADC:,3066,3081,829,851,,,,
Data Date-Time:,2025/04/03T10:10:55,,,,,,Data Date-Time:,2025/04/03T10:09:29,,,,,,,
Total Measurement Time in sec:,6.4965134,,,,,,,,,,,,,,
,,,,,,,,,,,,,,,
***General Information***,,,,,,,***Calibration Coefficients***,,,,,,,,
Model Name:,NIR-S-G1,,,,,,Shift Vector Coefficients:,0.392694521123758,0.0064508848494657,-3.36963000867986E-05,,,,,
Serial Number:,C23R003,(95UB125GC0VC23R003),,,,,Pixel to Wavelength Coefficients:,1737.96619343203,-0.927679554192883,-0.000240514673521399,,,,,
GUI Version:,3.13.1,Revision:,930,,,,Versions (Cal/Ref/Cfg):,1,3,1,,,,,
TIVA Version:,2.4.10,,,,,,***Lamp Usage ***,,,,,,,,
DLPC Version:,2.3.1,,,,,,Total Time(hh:mm:ss):,4min 48sec ,,,,,,,
UUID:,DE:67:0C:88:67:47:5F:21,,,,,,***Device/Error/Activation Status***,,,,,,,,
Main Board Version:,F,,,,,,Device Status:,0x00000001,Activation Status:,Activated,,,,,
Detector Board Version:,C,,,,,,Error status:,0x00000000,Error Code:,0x00000000000000000000000000000000,,,,,
,,,,,,,,,Error Details:,Not found,,,,,
***Scan Data***,,,,,,,,,,,,,,,
Wavelength (nm),Absorbance (AU),Reference Signal (unitless),Sample Signal (unitless)
901.114121469303,0.249720223031341,104316,58699
904.983805426851,0.248501333061507,113152,63850
908.849160120276,0.24776270673621,121188,68501
913.996231967317,0.245300238508911,133100,75662
917.851485044454,0.244411109237266,144697,82423
921.702408857468,0.242355701922366,158675,90814
925.549003406358,0.241102273924445,175612,100798
929.391268691125,0.240291121064085,194639,111928
933.229204711769,0.238439828385024,214815,124058
937.062811468289,0.238105297272355,234793,135700
942.16755273279,0.236177731102128,259988,150930
945.991057873023,0.234403950664166,277096,161520
949.810233749132,0.233791320073898,293441,171289
953.625080361117,0.233165277010142,309569,180964
957.435597708979,0.23243551293987,325427,190554
961.241785792718,0.232134380197898,340735,199656
966.309968826844,0.22964281701054,359825,212055
970.106055294295,0.229303320198162,373108,220055
973.897812497622,0.228197809478155,385427,227900
977.685240436826,0.228039390084816,396490,234527
981.468339111907,0.22711941803386,405903,240604
985.247108522864,0.226703185086795,414076,245684
989.021548669698,0.226022059296368,420249,249738
994.047401121285,0.224642997682264,426143,254046
997.811739651831,0.22432205991487,429784,256406
1001.57174891825,0.223565946539408,432992,258770
1005.32742892055,0.222364758906964,434264,260249
1009.07877965873,0.221978248516673,436040,261546
1012.82580113278,0.221628282453053,437203,262455
1016.56849334271,0.220858226933803,437950,263370
1021.55201521176,0.220240769426652,437630,263552
1025.2846058054,0.219615079153163,437509,263859
1029.01286713492,0.219049590473532,436635,263675
1032.73679920031,0.218316501998921,435725,263570
1036.45640200158,0.217406146421659,434547,263409
1040.17167553873,0.217676245165339,435405,263765
1045.1186391774,0.216473181253648,435715,264685
1048.82381109826,0.216195774180422,435445,264690
1052.524653755,0.21519803164425,435424,265286
1056.22116714761,0.215353933841498,436930,266108
1059.9133512761,0.214668653600072,438087,267234
1063.60120614046,0.214322867031915,438482,267688
1067.28473174071,0.214252641808747,439456,268326
1072.18936479684,0.213321801980523,441143,269934
1075.86278878079,0.212642639128787,442663,271288
1079.53188350063,0.212053286778315,445162,273190
1083.19664895633,0.211994139010688,447674,274769
1086.85708514792,0.211293066686638,449509,276341
1090.51319207538,0.211637090199609,450785,276906
1094.16496973872,0.211070278850421,452600,278384
1099.02727221231,0.210953061374823,454729,279769
1102.66894825936,0.210739935641813,456998,281303
1106.30629504229,0.20986912864313,458821,282992
1109.93931256109,0.209997082719452,460831,284148
1113.56800081577,0.210134861120512,463375,285626
1117.19235980633,0.209820893274739,465668,287247
1120.81238953276,0.209301654940589,467929,288987
1125.63236142381,0.209484596632155,471144,290850
1129.24228953396,0.209274243990188,473827,292648
1132.84788837998,0.209508306217622,476480,294128
1136.44915796188,0.209535432843665,479434,295933
1140.04609827965,0.209657401183035,482484,297732
1143.6387093333,0.21006407692012,485554,299346
1148.42212299398,0.20994801731413,490041,302193
1152.00463243134,0.210398638791897,494108,304385
1155.58281260458,0.210425241142893,498338,306972
1159.1566635137,0.210741944525571,502750,309464
1162.72618515869,0.211011705328708,507167,311989
1166.29137753957,0.211047068887473,512144,315025
1169.85224065631,0.210921052159364,517349,318319
1174.59332373445,0.211604159531538,524743,322361
1178.14408523491,0.212240328484155,531244,325877
1181.69051747124,0.212236710959579,537387,329648
1185.23262044346,0.212164733079115,544199,333882
1188.77039415154,0.212277646820647,550676,337768
1192.30383859551,0.212619268276086,558388,342229
1195.83295377535,0.212802095651972,566610,347122
1200.53170627095,0.212643674878666,576892,353550
1204.0507198345,0.212230604000344,584615,358624
1207.56540413393,0.212446975356002,592903,363527
1211.07575916924,0.212606078625246,601438,368625
1214.58178494043,0.212084557131215,609389,373947
1218.08348144749,0.212069907498156,616985,378621
1222.74567571271,0.212223542082612,627703,385062
1226.23727060348,0.211676807644076,634816,389916
1229.72453623013,0.211120844918405,640729,394052
1233.20747259266,0.211278753358348,648485,398677
1236.68607969106,0.211182192142065,657812,404501
1240.16035752534,0.210925113600478,668915,411572
1243.63030609549,0.21056522228799,678400,417754
1248.25016977818,0.210383281726033,691717,426133
1251.71001673204,0.210376014376906,701185,431973
1255.16553442179,0.210188804929079,710063,437631
1258.61672284741,0.209763401980504,718646,443355
1262.06358200891,0.20965462975754,726392,448246
1265.50611190628,0.210423328560446,734213,452271
1268.94431253953,0.210193864360797,740437,456346
1273.52184563968,0.209707403553615,748441,461796
1276.94994465664,0.209964584788579,754544,465286
1280.37371440948,0.209704592098634,759538,468646
1283.79315489819,0.209390934977991,764109,471807
1287.20826612279,0.20977558471742,768383,474026
1290.61904808326,0.209512653363841,772509,476860
1295.16002295302,0.209399868622808,777091,479813
1298.56070329721,0.209396176935748,779768,481470
1301.95705437726,0.209556717859474,782122,482745
1305.3490761932,0.209523097594909,784451,484220
1308.73676874501,0.209230655001285,786013,485511
1312.1201320327,0.209682056269616,787302,485802
1315.49916605626,0.209693869292065,787432,485869
1319.99781034349,0.209951298019891,788387,486170
1323.36674275077,0.210048540343207,788656,486227
1326.73134589392,0.210166602166565,788348,485905
1330.09161977295,0.210861216152279,788292,485094
1333.44756438786,0.210966196513028,787717,484623
1336.79917973864,0.211372742270729,786901,483668
1340.1464658253,0.211912910440538,785072,481944
1344.60277952999,0.212679624983801,782626,479595
1347.93996400036,0.21326502293615,780023,477356
1351.27281920661,0.213737943421244,776551,474714
1354.60134514873,0.214285061792395,771491,471027
1357.92554182674,0.214708805054294,767083,467879
1361.24540924061,0.215352429622084,763863,465225
1364.56094739037,0.21581921955691,760664,462779
1368.97493051252,0.216338436497039,757863,460524
1372.28036704598,0.216834833722913,756410,459116
1375.58147431533,0.217224794191087,753150,456727
1378.87825232055,0.218182634499468,748118,452676
1382.17070106165,0.218586231374376,742655,448953
1385.45882053862,0.219900947073365,738293,444967
1389.83624543039,0.221383545101078,731516,439380
1393.11426329108,0.222594799886793,724203,433776
1396.38795188764,0.224509090859197,715907,426921
1399.65731122008,0.226431643369698,708455,420611
1402.92234128839,0.22889067057196,701220,413965
1406.18304209259,0.231458024969194,695435,408130
1409.43941363266,0.234368453633451,691450,403081
1413.77450794189,0.238033517256385,689430,398526
1417.02077786567,0.241256567363122,688917,395285
1420.26271852533,0.244386221421339,688505,392212
1423.50032992086,0.247324166158065,688221,389407
1426.73361205227,0.25022736023127,688615,387034
1429.96256491956,0.252103357565673,688074,385063
1433.18718852272,0.253781939948044,687890,383475
1437.47995224942,0.255567665945136,686486,381122
1440.69447423629,0.256634113527316,686258,380061
1443.90466695905,0.256974770706327,685031,379084
1447.11053041767,0.257441922406404,683630,377902
1450.31206461218,0.258254217026894,682039,376318
1453.50926954256,0.258176600264804,680279,375414
1457.76547503888,0.258352719348585,676971,373437
1460.95257835298,0.258982083556787,674478,371523
1464.13535240295,0.259151674703889,671229,369589
1467.31379718879,0.259425217387451,667374,367235
1470.48791271052,0.259391712301544,663412,365083
1473.65769896812,0.25943224126414,659056,362652
1476.8231559616,0.258891404614319,654455,360569
1481.03703087538,0.258268048711936,648175,357622
1484.19238625257,0.257644526743481,642715,355119
1487.34341236563,0.257816357550994,637945,352344
1490.49010921458,0.257577742130692,632421,349485
1493.63247679939,0.256820321042056,626821,346995
1496.77051512009,0.256759608766504,620596,343597
1499.90422417666,0.256054494686628,614349,340691
1504.0757685079,0.255117309419203,606018,336797
1507.19937594819,0.254639860321236,598993,333259
1510.31865412435,0.253931852556924,591577,329670
1513.43360303639,0.253043373134595,584847,326587
1516.5442226843,0.252757966395653,576882,322351
1519.65051306809,0.251631721718602,569701,319165
1522.75247418776,0.250925083981199,561757,315227
1526.88168793646,0.250441161560494,551316,309713
1529.97354743984,0.250273897085654,543753,305582
1533.0610776791,0.249798400117033,535147,301075
1536.14427865423,0.248828515965011,526877,297085
1539.22315036524,0.249116040774757,518704,292283
1542.29769281213,0.248433729891407,509996,287828
1546.39034833045,0.248619705535163,498375,281149
1549.45478916105,0.247787281625537,489544,276697
1552.51490072752,0.248235118305998,480859,271508
1555.57068302988,0.247745260780236,471836,266714
1558.6221360681,0.247910086324826,463131,261694
1561.66925984221,0.247592103243524,453826,256624
1564.71205435219,0.247584360822449,444776,251511
1568.76237928798,0.246790795818607,432658,245106
1571.79507218167,0.247211232100286,423451,239658
1574.82343581124,0.246794504001758,414090,234585
1577.84747017669,0.246891749576111,404931,229345
1580.86717527801,0.246158989655336,395749,224523
1583.88255111521,0.246395386885982,386196,218984
1586.89359768829,0.246100200779507,377416,214151
1590.90159204153,0.245476700522723,365124,207474
1593.90253699832,0.244596729281809,355751,202558
1596.89915269099,0.244491552133504,346954,197597
1599.89143911953,0.244186064752437,338458,192894
1602.87939628395,0.244449281297975,329279,187549
1605.86302418424,0.243760583153277,320487,182831
1609.83446030711,0.242447145397849,308109,176302
1612.80798659112,0.242022233480521,299457,171519
1615.777183611,0.242181312817745,290937,166578
1618.74205136676,0.241032910536803,281999,161888
1621.7025898584,0.241610949106682,273362,156721
1624.65879908592,0.240799007414552,264660,152016
1627.61067904931,0.240511909641773,256574,147469
1631.53978458964,0.241264673113602,245375,140788
1634.48156293674,0.24038871449548,237050,136286
1637.41901201972,0.241356174431844,229436,131615
1640.35213183857,0.240696349879396,221168,127065
1643.28092239331,0.240868888612237,213394,122550
1646.20538368392,0.240557442157105,205651,118188
1649.1255157104,0.240742061098496,197851,113657
1653.01229066819,0.240715880583854,188107,108066
1655.92232107839,0.240711733809451,180556,103729
1658.82802222446,0.241648738699012,172824,99073
1661.72939410641,0.242222273961592,164614,94242
1664.62643672424,0.241372361213584,156008,89490
1667.51915007795,0.242879063063979,146117,83526
1671.36936680536,0.242067583419539,132539,75906
1674.25197854278,0.24083067255367,120594,69262
1677.13026101607,0.243432275053263,108285,61821
1680.00421422524,0.242113031042265,95324,54587
1682.87383817029,0.24292134110399,82786,47319
1685.73913285121,0.24325206065628,71043,40576
1688.60009826801,0.243340657790562,60298,34432
1692.40798441288,0.241839017336716,48378,27721
1695.25884821339,0.249491812629138,40897,23025
1698.10538274978,0.238516606604808,34208,19752
1700.94758802205,0.240166461250357,29168,16778
