***Scan Config Information***,,,,,,,***Reference Scan Information***,,,,,,,,
Scan Config Name:,FolHerbario,,,,,,Scan Config Name:,Local New Reference,,,,,,,
Scan Config Type:,Slew,Num Section:,1,,,,Scan Config Type:,Slew,Num Section:,1,,,,,
Section Config Type:,Column,,,,,,Section Config Type:,Column,,,,,,,
Start Wavelength (nm):,900,,,,,,Start Wavelength (nm):,900,,,,,,,
End Wavelength (nm):,1700,,,,,,End Wavelength (nm):,1700,,,,,,,
Pattern Width (nm):,7.03,,,,,,Pattern Width (nm):,7.03,,,,,,,
Exposure (ms):,0.635,,,,,,Exposure (ms):,0.635,,,,,,,
Digital Resolution:,228,,,,,,Digital Resolution:,228,,,,,,,
Num Repeats:,20,,,,,,Num Repeats:,20,,,,,,,
PGA Gain:,64,(FixedPGA),,,,,PGA Gain:,64,(AutoPGA),,,,,,
System Temp (C):,41.3,,,,,,System Temp (C):,40.91,,,,,,,
Humidity (%):,38.87,,,,,,Humidity (%):,39.19,,,,,,,
Lamp ADC:,3082,3086,851,854,,,Lamp ADC:,3083,3085,851,853,,,,
Data Date-Time:,2025/04/03T11:57:31,,,,,,Data Date-Time:,2025/04/03T11:54:51,,,,,,,
Total Measurement Time in sec:,6.4679614,,,,,,,,,,,,,,
,,,,,,,,,,,,,,,
***General Information***,,,,,,,***Calibration Coefficients***,,,,,,,,
Model Name:,NIR-S-G1,,,,,,Shift Vector Coefficients:,-2.27453457587495,0.0384893477179632,-0.000120883834660424,,,,,
Serial Number:,C23R004,(95UB125GC0VC23R004),,,,,Pixel to Wavelength Coefficients:,1773.06832862561,-0.918144602406657,-0.000240533803363975,,,,,
GUI Version:,3.13.1,Revision:,930,,,,Versions (Cal/Ref/Cfg):,1,3,1,,,,,
TIVA Version:,2.4.10,,,,,,***Lamp Usage ***,,,,,,,,
DLPC Version:,2.3.1,,,,,,Total Time(hh:mm:ss):,15min 56sec ,,,,,,,
UUID:,DE:67:0C:88:67:66:73:21,,,,,,***Device/Error/Activation Status***,,,,,,,,
Main Board Version:,F,,,,,,Device Status:,0x00000001,Activation Status:,Activated,,,,,
Detector Board Version:,C,,,,,,Error status:,0x00000000,Error Code:,0x00000000000000000000000000000000,,,,,
,,,,,,,,,Error Details:,Not found,,,,,
***Scan Data***,,,,,,,,,,,,,,,
Wavelength (nm),Absorbance (AU),Reference Signal (unitless),Sample Signal (unitless)
900.860912737931,0.248581070815431,117744,66429
904.749703961815,0.247746744778848,126581,71552
909.9280239805,0.247196874878079,138400,78332
913.806712784643,0.244227763346885,148958,84886
917.681071980326,0.242532191459215,161739,92530
921.551101567548,0.241540878286266,177366,101702
925.41680154631,0.239855595719199,195587,112586
929.278171916611,0.238465596416372,216717,125149
933.135212678451,0.237907550546327,239219,138321
936.987923831831,0.236693557818275,261230,151471
942.118137089843,0.235048331644847,287926,167584
945.960745823482,0.233986347330156,304864,177877
949.79902494866,0.233291397858582,320571,187341
953.632974465377,0.2317961153108,335139,196530
957.462594373634,0.231068323772632,348931,204961
961.287884673431,0.230958408755869,361977,212678
965.108845364766,0.229920658859398,374576,220607
970.196724673387,0.229363528959477,390955,230549
974.007582944981,0.228693751374282,402533,237743
977.814111608115,0.228589890537916,414010,244580
981.616310662789,0.228162237328115,424006,250732
985.414180109002,0.2278256796229,433588,256597
989.207719946754,0.226944317824943,442171,262208
992.996930176046,0.226838626426185,450198,267033
996.781810796877,0.226447963289442,457304,271492
1001.82158334482,0.226028502219451,465995,276919
1005.59636154591,0.225297184092702,470990,280359
1009.36681013854,0.224986726529356,475594,283302
1013.13292912271,0.224598340061937,479362,285802
1016.89471849842,0.224492380884112,482421,287696
1020.65217826567,0.223642342862432,484465,289481
1024.40530842446,0.223867591303053,486441,290511
1028.15410897478,0.223377698139106,488000,291771
1033.14577476206,0.223075868448849,489446,292839
1036.88447289264,0.222847901177814,489849,293234
1040.61884141477,0.222263353688457,490111,293786
1044.34888032843,0.222015680560431,490070,293929
1048.07458963364,0.221458853922348,488771,293526
1051.79596933038,0.221208740046684,487536,292953
1055.51301941866,0.220773288599533,485734,292163
1059.22573989848,0.220762851511232,485054,291761
1064.16929892509,0.220456817193282,484292,291508
1067.87191698517,0.219956363470084,484632,292049
1071.57020543679,0.219966492485047,485941,292831
1075.26416427995,0.219967081034794,486861,293385
1078.95379351464,0.219493714835648,488469,294675
1082.63909314088,0.219780651516949,490643,295791
1086.32006315866,0.219445560336009,493132,297521
1091.22128823587,0.219234991009856,496034,299417
1094.89215583391,0.219383681013206,499868,301628
1098.55869382348,0.218814677242523,503328,304114
1102.2209022046,0.219031168314316,507005,306183
1105.87878097725,0.218877629254974,510825,308599
1109.53233014145,0.219267209574801,514935,310803
1113.18154969718,0.219549467569856,519121,313126
1116.82643964446,0.219766088632751,522777,315174
1121.67955796099,0.219998197500979,527929,318110
1125.31434548853,0.220489471364423,531886,320132
1128.9448034076,0.220874630945567,536033,322342
1132.57093171821,0.22193500281201,540489,324229
1136.19273042036,0.22276636185141,544698,326129
1139.81019951405,0.223774588635193,549128,328019
1143.42333899928,0.224447368634237,553388,330052
1147.03214887605,0.225492237462378,557953,331975
1151.83716043191,0.226758317183356,563560,334335
1155.43586788894,0.227958420405522,568260,336193
1159.03024573751,0.229565379311008,572796,337625
1162.62029397761,0.230684231685894,577837,339720
1166.20601260926,0.231911979774,583263,341942
1169.78740163244,0.232974817698255,588218,344004
1173.36446104717,0.234345431236139,593568,346039
1176.93719085343,0.236060377210211,599576,348164
1181.69409564862,0.2369092419035,607104,351847
1185.25672303515,0.238478289729577,613622,354342
1188.81502081321,0.23880905509631,619968,357734
1192.36898898281,0.239588047892339,626602,360914
1195.91862754395,0.240036237676346,633987,364791
1199.46393649663,0.240140318604154,640929,368697
1203.00491584085,0.240368981064009,648655,372945
1206.54156557661,0.239921626544103,655858,377475
1211.25036361113,0.238605136173679,665924,384432
1214.77691092715,0.237166251841,673407,390042
1218.29912863471,0.235155653097383,680704,396098
1221.8170167338,0.233283273580062,688246,402217
1225.33057522444,0.231499099940041,695966,408403
1228.83980410662,0.230078549594349,703020,413894
1232.34470338033,0.228605128279579,709411,419076
1237.01116746546,0.227470761196242,718177,425364
1240.50596431943,0.226166293457495,723832,430003
1243.99643156495,0.225603613494289,730043,434255
1247.482569202,0.224779761199894,737863,439740
1250.96437723059,0.224131761550467,746514,445560
1254.44185565073,0.223498070161145,754694,451100
1257.9150044624,0.223007025030565,762663,456379
1261.38382366561,0.222741514971861,771020,461662
1266.00218099006,0.222451848863907,780655,467743
1269.46089777353,0.222264334788907,786579,471496
1272.91528494854,0.222011061095204,793043,475648
1276.36534251509,0.221252732618086,798793,479934
1279.81107047318,0.221359898575271,804732,483383
1283.2524688228,0.221107856505065,809601,486590
1286.68953756397,0.220637353930015,814229,489902
1290.12227669668,0.220695424945259,818555,492439
1294.69252726046,0.22004772959376,823224,495987
1298.11516397342,0.219823598443182,826064,497955
1301.53347107793,0.219720303355429,829100,499904
1304.94744857397,0.219616202949568,831609,501537
1308.35709646156,0.219580311204493,833757,502874
1311.76241474068,0.219852424700063,835343,503515
1315.16340341134,0.219942728269064,836967,504389
1318.56006247354,0.220277071077704,838050,504653
1323.08220627665,0.220774633534444,839019,504658
1326.46876291911,0.221191455863738,839154,504255
1329.85098995311,0.22212593228303,839037,503101
1333.22888737865,0.222854171916965,839102,502297
1336.60245519573,0.22382086154174,838509,500826
1339.97169340435,0.225171494218371,837520,498682
1343.33660200451,0.226455623000336,836109,496372
1347.81641185822,0.228782422495632,833891,492410
1351.17121803864,0.230176094765656,830676,488940
1354.52169461059,0.231807179239554,826774,484819
1357.86784157409,0.233826916953585,823792,480829
1361.20965892912,0.235572873681829,820794,477157
1364.5471466757,0.237177904905036,818315,473961
1367.88030481381,0.239179839660252,816698,470849
1371.20913334347,0.24084950138443,815315,468248
1375.64083643651,0.243282854057175,811852,463654
1378.95956254642,0.245155450158873,806599,458672
1382.27395904787,0.247515234460737,801032,453038
1385.58402594086,0.250117671878737,795969,447485
1388.88976322539,0.253288612625811,790734,441308
1392.19117090146,0.256396310789906,783419,434108
1395.48824896907,0.260734841158149,776015,425731
1398.78099742822,0.265717022249868,770550,417911
1403.16459376059,0.273339658692385,764097,407201
1406.4472398,0.28077188610689,760381,398345
1409.72555623094,0.288273833091534,757722,390154
1412.99954305343,0.296151951904585,755704,382120
1416.26920026746,0.303753647487562,753861,374574
1419.53452787302,0.311400744135765,752140,367196
1422.79552587013,0.317385815479107,750264,361267
1426.05219425877,0.323246813707856,749634,356125
1430.38768383047,0.329962297782945,748427,350096
1433.63424979937,0.333475069275756,747682,346930
1436.87648615981,0.336284480812619,746476,344137
1440.11439291179,0.338222963234732,746168,342463
1443.34797005532,0.339463986310472,745183,341035
1446.57721759038,0.34061587238293,744016,339599
1449.80213551698,0.340749954237078,742727,338906
1453.02272383511,0.341080022619342,741320,338007
1457.31010664614,0.341113049733605,738389,336645
1460.52059254454,0.340632757583977,736037,335944
1463.72674883448,0.340255169247354,733228,334953
1466.92857551595,0.339810521138341,730468,334034
1470.12607258897,0.338820837492113,726990,333202
1473.31924005352,0.337756758917156,723226,332290
1476.50807790962,0.336722521225422,719912,331556
1480.75312677125,0.33532626397851,714991,330350
1483.93186220761,0.334160486991154,710769,329282
1487.1062680355,0.332836004669743,706259,328192
1490.27634425493,0.331823189294345,701621,326798
1493.44209086591,0.330578000815216,697161,325653
1496.60350786842,0.329056291995105,691834,324299
1499.76059526247,0.327956903097403,686810,322760
1502.91335304806,0.326629756527208,681458,321225
1507.11029514902,0.324112248003498,673710,319419
1510.25295051487,0.322858285700946,667982,317619
1513.39127627226,0.321116770930148,661951,316016
1516.52527242119,0.319615947903793,654860,313713
1519.65493896165,0.318021243980982,648764,311936
1522.78027589366,0.316031029415542,641711,309962
1525.90128321721,0.314831322537895,634833,307488
1529.01796093229,0.313582382208299,627851,304982
1533.16679627258,0.312094424003846,617770,301115
1536.27337156793,0.31104524089829,609771,297935
1539.37561725481,0.310051421899156,601751,294690
1542.47353333323,0.309329014626068,593942,291350
1545.5671198032,0.308295689310155,585207,287749
1548.6563766647,0.307726760143264,576672,283924
1551.74130391774,0.306390076532503,568147,280589
1554.82190156232,0.306017123012352,559049,276333
1558.92263014194,0.304886685377619,546655,270911
1561.99312536678,0.304097833980647,537145,266682
1565.05929098316,0.303751995010438,527846,262274
1568.12112699108,0.302446742021222,518290,258301
1571.17863339054,0.302892370970615,508986,253404
1574.23181018153,0.30201082260973,499138,249006
1577.28065736407,0.301298086905638,489376,244537
1580.32517493815,0.30067908130442,479998,240193
1584.37779675709,0.299295893529277,466645,234256
1587.41221191143,0.297642824797475,456720,230148
1590.4422974573,0.296912842616039,446816,225536
1593.46805339471,0.296335227293807,436757,220752
1596.48947972367,0.29538800304326,427121,216353
1599.50657644416,0.293852315159318,417353,212154
1602.5193435562,0.292227524957063,407712,208030
1606.52963142574,0.290553672837139,395029,202337
1609.53229611804,0.289824099056345,385488,197782
1612.53063120187,0.28796479105714,375661,193567
1615.52463667724,0.287178415769237,366200,189034
1618.51431254415,0.286469737039004,356743,184453
1621.4996588026,0.286017286465412,346777,179487
1624.48067545259,0.285035143769282,337375,175016
1627.45736249411,0.284150206555577,327712,170350
1631.41954360299,0.283973536222793,314989,163803
1634.38612822478,0.283525542009076,305674,159123
1637.3483832381,0.283773859589634,296815,154423
1640.30630864297,0.283716718630116,287751,149727
1643.25990443938,0.282912765669266,278834,145356
1646.20917062732,0.284013681019186,270801,140811
1649.15410720681,0.28348396608726,262052,136428
1652.09471417783,0.284321294186836,253347,131642
1656.00878852603,0.286016635950542,241940,125225
1658.93929307732,0.288556024184366,233640,120224
1661.86546802014,0.290227282369698,224330,114990
1664.7873133545,0.292838535896639,215120,109608
1667.7048290804,0.296077375946896,204724,103536
1670.61801519784,0.298222485112245,193972,97615
1673.52687170682,0.300607306008698,181771,90974
1676.43139860734,0.303154297361628,168052,83616
1680.29736619487,0.308055664198652,147753,72691
1683.19179067565,0.310098281084237,131775,64526
1686.08188554796,0.314130814235194,115597,56081
1688.96765081182,0.31793109150202,99820,48005
1691.84908646722,0.32238181730565,85794,40839
1694.72619251415,0.325600508035892,73266,34618
1697.59896895263,0.329185452645859,62606,29338
1701.42260259077,0.333575223868435,51261,23780
