***Scan Config Information***,,,,,,,***Reference Scan Information***,,,,,,,,
Scan Config Name:,FolHerbario,,,,,,Scan Config Name:,Local New Reference,,,,,,,
Scan Config Type:,Slew,Num Section:,1,,,,Scan Config Type:,Slew,Num Section:,1,,,,,
Section Config Type:,Column,,,,,,Section Config Type:,Column,,,,,,,
Start Wavelength (nm):,900,,,,,,Start Wavelength (nm):,900,,,,,,,
End Wavelength (nm):,1700,,,,,,End Wavelength (nm):,1700,,,,,,,
Pattern Width (nm):,7.03,,,,,,Pattern Width (nm):,7.03,,,,,,,
Exposure (ms):,0.635,,,,,,Exposure (ms):,0.635,,,,,,,
Digital Resolution:,228,,,,,,Digital Resolution:,228,,,,,,,
Num Repeats:,20,,,,,,Num Repeats:,20,,,,,,,
PGA Gain:,64,(FixedPGA),,,,,PGA Gain:,64,(AutoPGA),,,,,,
System Temp (C):,37.36,,,,,,System Temp (C):,33.05,,,,,,,
Humidity (%):,52.32,,,,,,Humidity (%):,56.81,,,,,,,
Lamp ADC:,3069,3082,845,843,,,Lamp ADC:,3069,3082,845,843,,,,
Data Date-Time:,2025/04/03T10:08:43,,,,,,Data Date-Time:,2025/04/03T09:44:56,,,,,,,
Total Measurement Time in sec:,6.4617555,,,,,,,,,,,,,,
,,,,,,,,,,,,,,,
***General Information***,,,,,,,***Calibration Coefficients***,,,,,,,,
Model Name:,NIR-S-G1,,,,,,Shift Vector Coefficients:,-4.78706677830951,0.0420606707536571,-9.21439965724389E-05,,,,,
Serial Number:,C23R001,(95UB125GC0VC23R001),,,,,Pixel to Wavelength Coefficients:,1777.69850932213,-0.910890781979712,-0.000240535926235214,,,,,
GUI Version:,3.13.1,Revision:,930,,,,Versions (Cal/Ref/Cfg):,1,3,1,,,,,
TIVA Version:,2.4.10,,,,,,***Lamp Usage ***,,,,,,,,
DLPC Version:,2.3.1,,,,,,Total Time(hh:mm:ss):,3min 41sec ,,,,,,,
UUID:,DE:67:0C:88:67:3E:75:21,,,,,,***Device/Error/Activation Status***,,,,,,,,
Main Board Version:,F,,,,,,Device Status:,0x00000001,Activation Status:,Activated,,,,,
Detector Board Version:,C,,,,,,Error status:,0x00000000,Error Code:,0x00000000000000000000000000000000,,,,,
,,,,,,,,,Error Details:,Not found,,,,,
***Scan Data***,,,,,,,,,,,,,,,
Wavelength (nm),Absorbance (AU),Reference Signal (unitless),Sample Signal (unitless)
900.868887283122,0.304997084864042,106016,52526
904.747472781646,0.297890786336483,114412,57621
909.912185107076,0.295951998191046,125583,63530
913.780668096698,0.293619094432471,136369,69358
917.644821439648,0.293760447156882,150181,76358
921.504645135925,0.292084732141869,166548,85007
925.36013918553,0.290648014915386,186373,95441
929.211303588463,0.289458558345037,208093,106856
933.058138344724,0.287262712295118,230066,118738
938.180516347137,0.282628255872656,257058,134092
942.017248594496,0.280718850612424,274755,143955
945.849651195182,0.277255267379241,291117,153749
949.677724149196,0.274510623745174,306467,162882
953.501467456539,0.27349470497435,321547,171297
957.320881117208,0.270666732770547,336390,180375
961.135965131206,0.27018346519053,351284,188571
966.216008810601,0.26901737199392,371115,199752
970.020990315697,0.267315918723337,385594,208360
973.821642174121,0.267150298339333,400237,216355
977.617964385872,0.265716625526616,413886,224473
981.409956950951,0.264782321496928,426674,231907
985.197619869358,0.263604943272115,438251,238846
988.980953141092,0.262353618742337,448275,245014
994.01866249747,0.261388020137803,460122,252049
997.791893260303,0.259875581488713,467400,256929
1001.56079437646,0.259321156715829,474122,260957
1005.32536584595,0.258138112520071,479337,264547
1009.08560766877,0.25717469424084,483986,267706
1012.84151984491,0.255847136687973,487195,270306
1016.59310237438,0.255149993075661,489129,271815
1021.58847740774,0.253554923470199,490624,273649
1025.32995742831,0.253123827030012,491837,274598
1029.06710780221,0.251725889073148,491840,275485
1032.79992852944,0.25153149583118,490799,275025
1036.52841960999,0.250620200427184,489382,274807
1040.25258104387,0.250147392777981,488387,274547
1043.97241283108,0.248873963835235,487271,274724
1047.68791497161,0.248661688815704,487469,274970
1052.63518281973,0.248091199099871,486606,274844
1056.34058245136,0.246754579191208,486468,275613
1060.04165243632,0.246568866761225,488326,276784
1063.73839277461,0.24573204975234,491230,278967
1067.43080346623,0.245924480504014,493530,280149
1071.11888451118,0.245570292289141,492024,279522
1074.80263590945,0.244713558152708,487655,277587
1079.70756943455,0.244247935905993,482568,274986
1083.38121832392,0.243189119009984,481610,275110
1087.05053756662,0.242565060581214,481789,275608
1090.71552716264,0.242438549939629,482318,275991
1094.376187112,0.241416400178886,484434,277855
1098.03251741468,0.240918437830449,486202,279189
1101.68451807069,0.240970149963085,488700,280590
1106.54711727277,0.24035898002925,492053,282913
1110.18901541988,0.239840512087737,494129,284446
1113.82658392031,0.239607139758762,497053,286283
1117.45982277408,0.239431372640535,499325,287708
1121.08873198117,0.239075026516264,501775,289357
1124.71331154159,0.239169918819007,504025,290591
1128.33356145534,0.23968165486944,507455,292224
1133.1538263344,0.23931901571626,510630,294298
1136.76397373924,0.239144552130066,513108,295845
1140.36979149742,0.239616916716001,515486,296893
1143.97127960892,0.239923241671803,518138,298210
1147.56843807374,0.239525769763974,520898,300073
1151.1612668919,0.240895765619755,524219,301035
1154.74976606338,0.240755180800998,527101,302788
1159.52769661943,0.24112420933675,531133,304845
1163.10609328201,0.24119188979516,534098,306499
1166.68016029792,0.241869414756396,537576,308014
1170.24989766716,0.242209305059836,541471,310003
1173.81530538972,0.242517323159084,545746,312229
1177.37638346562,0.242840295556769,550009,314434
1180.93313189484,0.242868026407806,554183,316800
1185.66872812787,0.2436848568927,561576,320423
1189.21537404818,0.244179861471938,567189,323257
1192.75769032183,0.243775177629948,572570,326628
1196.29567694881,0.244208295529048,579253,330111
1199.82933392911,0.244232392566805,585606,333713
1203.35866126274,0.243826889744443,592514,337965
1206.8836589497,0.244287170542512,599392,341526
1211.57692085971,0.243847427518035,608509,347072
1215.09181603776,0.243622510045611,616232,351659
1218.60238156915,0.243349095717766,623991,356311
1222.10861745386,0.242551858562012,631405,361207
1225.6105236919,0.242375290720079,639069,365740
1229.10810028326,0.241656142591668,646371,370532
1232.60134722796,0.241212091630207,653352,374917
1236.09026452598,0.240855792411155,660549,379358
1240.73541925074,0.240076980494614,673034,387222
1244.21423403986,0.240107287478231,684522,393804
1247.68871918231,0.239961841959203,695975,400527
1251.15887467809,0.239777241989156,707254,407191
1254.62470052719,0.239796497713817,718779,413808
1258.08619672962,0.239515068809929,729593,420306
1261.54336328538,0.2393265573347,739399,426140
1266.14618368713,0.239354183375659,752422,433618
1269.59324773399,0.239309040126119,761307,438784
1273.03598213417,0.238861381794456,770397,444481
1276.47438688769,0.238757168812073,778178,449078
1279.90846199453,0.239065848286679,785756,453129
1283.3382074547,0.238919082195399,792863,457382
1286.76362326819,0.238386553250887,799009,461493
1291.32410934692,0.238643092320079,806596,465600
1294.73942265151,0.238474165766533,811732,468747
1298.15040630944,0.238017800833918,816166,471803
1301.55706032069,0.238578445672505,820979,473973
1304.95938468526,0.238357382986187,824434,476210
1308.35737940317,0.238101894480348,826586,477734
1311.7510444744,0.238064428619192,829006,479174
1316.26919623011,0.23845561152049,831431,480143
1319.65275879245,0.238628935051545,832364,480490
1323.03199170811,0.23896616798533,833073,480526
1326.40689497709,0.239093291201649,833551,480661
1329.77746859941,0.240000262213868,833561,479664
1333.14371257505,0.239974952759159,832548,479109
1336.50562690402,0.240791356761241,831228,477451
1340.98144433671,0.241893183675925,830231,475670
1344.33325615678,0.242822328327516,828238,473514
1347.68073833018,0.243769082069386,825430,470881
1351.0238908569,0.244594365200496,821956,468009
1354.36271373695,0.245972159707875,817582,464044
1357.69720697033,0.247147532510926,813512,460486
1361.02737055704,0.248299220669091,808764,456586
1365.46085366672,0.249446782920506,804615,453045
1368.78091474452,0.250148703414094,802453,451098
1372.09664617566,0.250581296050588,800003,449273
1375.40804796012,0.25155461927165,796162,446115
1378.71512009791,0.252269997478101,790056,441965
1382.01786258902,0.253813360738259,783906,436969
1385.31627543347,0.255048849754763,778074,432486
1388.61035863124,0.256624211508444,771404,427226
1392.99573455567,0.259492946400029,760160,418227
1396.27971524454,0.262081883523594,749944,410154
1399.55936628673,0.265532669975446,740611,401844
1402.83468768226,0.269317249890013,733696,394638
1406.10567943111,0.273784400173022,729354,388288
1409.3723415333,0.279421279432729,726205,381626
1412.6346739888,0.284766485876849,723830,375725
1416.97771559022,0.292831063458836,721794,367775
1420.22994553682,0.298058002919669,720721,362835
1423.47784583676,0.303538751081295,719969,357911
1426.72141649002,0.308044995529828,718535,353511
1429.96065749661,0.311954088764243,717997,350081
1433.19556885653,0.315021993797232,717789,347516
1436.42615056978,0.317808869356138,717215,345017
1440.72685784817,0.319037967761984,716523,343710
1443.94733705251,0.320531751166642,716287,342417
1447.16348661018,0.320799139642713,715062,341621
1450.37530652118,0.320908259854714,713617,340845
1453.58279678551,0.321047742031126,712154,340037
1456.78595740317,0.321211776876731,710242,338996
1459.98478837415,0.320551719198843,707699,338296
1464.24316132953,0.320605089922857,704315,336637
1467.43188979161,0.320383845223926,701380,335405
1470.61628860702,0.32039849451934,698133,333841
1473.79635777575,0.318912548157792,695069,333515
1476.97209729782,0.31789364144185,691282,332477
1480.14350717321,0.316900714437878,688050,331680
1483.31058740193,0.316383594133315,684490,330357
1487.52662603429,0.315018720963902,679591,329025
1490.68360375411,0.313907676704921,675471,327868
1493.83625182725,0.312845901228922,671191,326588
1496.98457025372,0.311715055916959,666994,325392
1500.12855903353,0.310696960603042,662469,323943
1503.26821816666,0.309262422617888,658134,322888
1506.40354765311,0.308277923558837,653697,321439
1510.57725196245,0.306806840320047,647439,319442
1513.70247894001,0.305190872474332,642054,317966
1516.82337627089,0.304209958871999,636566,315961
1519.9399439551,0.303674811286484,631814,313989
1523.05218199264,0.302048984923639,625971,312252
1526.16009038351,0.301679902383913,620592,309832
1529.2636691277,0.300935319482095,614612,307373
1532.36291822522,0.300006952457423,608034,304734
1536.48851534932,0.298977000326825,599149,300994
1539.57766193794,0.298605825850859,592947,298133
1542.66247887988,0.298137026612152,586216,295067
1545.74296617516,0.297868326534205,579478,291856
1548.81912382376,0.297654964129905,571936,288199
1551.89095182569,0.297440872251026,564680,284683
1554.95845018095,0.296993584289028,557001,281101
1559.04171298203,0.296512035642409,546222,275967
1562.09910882838,0.296185881887979,538407,272223
1565.15217502807,0.295774844445077,530231,268343
1568.20091158108,0.29550592056932,522073,264378
1571.24531848742,0.29506601865457,513622,260362
1574.28539574709,0.294643492040687,504991,256236
1577.32114336008,0.294745716734222,496251,251742
1581.36207183814,0.293982628380046,484488,246207
1584.38771694224,0.293891174344083,475576,241729
1587.40903239966,0.292424675346941,466418,237876
1590.42601821041,0.292030489874968,457391,233484
1593.43867437448,0.291860941316311,447533,228541
1596.44700089189,0.290643460785806,438561,224588
1599.45099776262,0.288974980480905,429147,220613
1603.44959191766,0.288114456198494,416521,214547
1606.44348627949,0.28785349844635,407402,209976
1609.43305099465,0.286295240048622,397825,205777
1612.41828606314,0.286601134645809,388701,200916
1615.39919148495,0.285363781127817,378696,196303
1618.37576726009,0.284709360997081,369529,191840
1621.34801338856,0.28398431900324,360134,187275
1625.30427322059,0.28256325142158,347551,181324
1628.26641684016,0.283152622977862,338480,176352
1631.22423081305,0.282606971866707,329078,171669
1634.17771513927,0.28245126089221,319626,166798
1637.12686981883,0.281916864937628,310408,162187
1640.0716948517,0.282483390240573,301191,157166
1643.01219023791,0.281161757783581,291556,152602
1646.92611574692,0.282538559585104,279418,145786
1649.85650862422,0.281272615816175,270219,141398
1652.78257185485,0.283073418055759,261411,136223
1655.70430543881,0.282752741610831,251983,131407
1658.6217093761,0.281609484266964,242389,126737
1661.53478366672,0.281162598673371,232050,121456
1664.44352831066,0.278630497282289,220461,116065
1668.31511949665,0.274294112835459,202863,107872
1671.21376163169,0.265709914712134,187699,101801
1674.10807412006,0.258030570261659,171075,94440
1676.99805696176,0.248398384893223,152587,86123
1679.88371015678,0.239021796933389,133898,77224
1682.76503370514,0.230572553270267,115939,68180
1685.64202760682,0.22538232931948,99177,59024
1688.51469186182,0.222240978829286,84558,50689
1692.33817586257,0.225620627802601,68151,40537
1695.20073760867,0.225177654121895,57929,34492
1698.05896970811,0.228164039512944,49782,29438
1700.91287216087,0.235992676180294,43244,25115
