***Scan Config Information***,,,,,,,***Reference Scan Information***,,,,,,,,
Scan Config Name:,FolHerbario,,,,,,Scan Config Name:,Local New Reference,,,,,,,
Scan Config Type:,Slew,Num Section:,1,,,,Scan Config Type:,Slew,Num Section:,1,,,,,
Section Config Type:,Column,,,,,,Section Config Type:,Column,,,,,,,
Start Wavelength (nm):,900,,,,,,Start Wavelength (nm):,900,,,,,,,
End Wavelength (nm):,1700,,,,,,End Wavelength (nm):,1700,,,,,,,
Pattern Width (nm):,7.03,,,,,,Pattern Width (nm):,7.03,,,,,,,
Exposure (ms):,0.635,,,,,,Exposure (ms):,0.635,,,,,,,
Digital Resolution:,228,,,,,,Digital Resolution:,228,,,,,,,
Num Repeats:,20,,,,,,Num Repeats:,20,,,,,,,
PGA Gain:,64,(FixedPGA),,,,,PGA Gain:,64,(AutoPGA),,,,,,
System Temp (C):,37.72,,,,,,System Temp (C):,37.27,,,,,,,
Humidity (%):,48.39,,,,,,Humidity (%):,48.59,,,,,,,
Lamp ADC:,3082,3086,852,854,,,Lamp ADC:,3083,3085,851,853,,,,
Data Date-Time:,2025/04/03T10:12:17,,,,,,Data Date-Time:,2025/04/03T10:09:40,,,,,,,
Total Measurement Time in sec:,6.5057973,,,,,,,,,,,,,,
,,,,,,,,,,,,,,,
***General Information***,,,,,,,***Calibration Coefficients***,,,,,,,,
Model Name:,NIR-S-G1,,,,,,Shift Vector Coefficients:,-2.27453457587495,0.0384893477179632,-0.000120883834660424,,,,,
Serial Number:,C23R004,(95UB125GC0VC23R004),,,,,Pixel to Wavelength Coefficients:,1773.06832862561,-0.918144602406657,-0.000240533803363975,,,,,
GUI Version:,3.13.1,Revision:,930,,,,Versions (Cal/Ref/Cfg):,1,3,1,,,,,
TIVA Version:,2.4.10,,,,,,***Lamp Usage ***,,,,,,,,
DLPC Version:,2.3.1,,,,,,Total Time(hh:mm:ss):,5min 7sec ,,,,,,,
UUID:,DE:67:0C:88:67:66:73:21,,,,,,***Device/Error/Activation Status***,,,,,,,,
Main Board Version:,F,,,,,,Device Status:,0x00000001,Activation Status:,Activated,,,,,
Detector Board Version:,C,,,,,,Error status:,0x00000000,Error Code:,0x00000000000000000000000000000000,,,,,
,,,,,,,,,Error Details:,Not found,,,,,
***Scan Data***,,,,,,,,,,,,,,,
Wavelength (nm),Absorbance (AU),Reference Signal (unitless),Sample Signal (unitless)
900.860912737931,0.185889947724933,117505,76589
904.749703961815,0.185905536443159,126741,82606
909.9280239805,0.18465807793071,138410,90471
913.806712784643,0.183842595407077,149267,97751
917.681071980326,0.183933427053206,162334,106286
921.551101567548,0.183055017483835,178666,117216
925.41680154631,0.18232060488766,197455,129762
929.278171916611,0.18192029359173,219019,144066
933.135212678451,0.180729493017731,241502,159291
936.987923831831,0.181106078771163,263400,173584
942.118137089843,0.179810741923865,289170,191136
945.960745823482,0.178744043323865,305765,202602
949.79902494866,0.178944376800523,320937,212557
953.632974465377,0.178279037309231,335431,222497
957.462594373634,0.178212966735479,348928,231485
961.287884673431,0.177163399382817,361568,240451
965.108845364766,0.177128364752152,374396,249002
970.196724673387,0.176709001375264,390462,259938
974.007582944981,0.176292687960635,402200,268009
977.814111608115,0.176234749552034,413205,275379
981.616310662789,0.175743298487204,423565,282603
985.414180109002,0.176130862943772,433175,288757
989.207719946754,0.175606194156823,441600,294729
992.996930176046,0.175201392123799,449516,300292
996.781810796877,0.175505857411363,456316,304621
1001.82158334482,0.174612645569819,464750,310890
1005.59636154591,0.174239619810732,470082,314727
1009.36681013854,0.174115464647337,474363,317684
1013.13292912271,0.173727161696344,478164,320516
1016.89471849842,0.173462571286322,481047,322645
1020.65217826567,0.172894419913422,483003,324381
1024.40530842446,0.17319138113904,485032,325521
1028.15410897478,0.172512342026119,486839,327245
1033.14577476206,0.171960054993707,487715,328251
1036.88447289264,0.172024492058803,488358,328635
1040.61884141477,0.17189675427895,488975,329147
1044.34888032843,0.171184683024887,488960,329677
1048.07458963364,0.171181974444113,487941,328992
1051.79596933038,0.171089302384103,486360,327996
1055.51301941866,0.170661705716121,484560,327104
1059.22573989848,0.170328202416734,483929,326929
1064.16929892509,0.170103714622853,483241,326633
1067.87191698517,0.169584976453509,483833,327424
1071.57020543679,0.169448625631639,484727,328132
1075.26416427995,0.169150103154287,485879,329138
1078.95379351464,0.168799704463581,487474,330485
1082.63909314088,0.168634861498603,489657,332091
1086.32006315866,0.168728947739125,492459,333919
1091.22128823587,0.168502592673111,495572,336205
1094.89215583391,0.168375167560017,499115,338708
1098.55869382348,0.167824094573217,502831,341663
1102.2209022046,0.167931928514627,506218,343879
1105.87878097725,0.168055692705848,510447,346653
1109.53233014145,0.167579631197834,514196,349582
1113.18154969718,0.167922542833932,518350,352128
1116.82643964446,0.168091542844744,521927,354420
1121.67955796099,0.168191606288037,527319,357999
1125.31434548853,0.168293823462965,531452,360720
1128.9448034076,0.168342617326376,535412,363367
1132.57093171821,0.168852893340346,539936,366007
1136.19273042036,0.168949916394854,544287,368874
1139.81019951405,0.169519578239957,548537,371267
1143.42333899928,0.16975463357991,552778,373935
1147.03214887605,0.170328579935233,557066,376338
1151.83716043191,0.170872719840163,563340,380100
1155.43586788894,0.171622296820172,568001,382584
1159.03024573751,0.171778337613247,572325,385358
1162.62029397761,0.172222544673113,577402,388379
1166.20601260926,0.17283373865245,582753,391427
1169.78740163244,0.173443642473599,587982,394385
1173.36446104717,0.173757746869104,593310,397671
1176.93719085343,0.174382561992248,599416,401186
1181.69409564862,0.175216863483112,607076,405533
1185.25672303515,0.175115833382871,613291,409780
1188.81502081321,0.175291644880224,619955,414065
1192.36898898281,0.175318199164132,626957,418716
1195.91862754395,0.175220669909906,633903,423450
1199.46393649663,0.175435137819261,641239,428139
1203.00491584085,0.17546213385506,648771,433141
1206.54156557661,0.174648392555748,655679,438574
1211.25036361113,0.174591856344949,665757,445373
1214.77691092715,0.173957077366769,673233,451033
1218.29912863471,0.17326289871912,680998,456965
1221.8170167338,0.172854173673849,688564,462477
1225.33057522444,0.172345505513956,696242,468182
1228.83980410662,0.17160707549831,702978,473516
1232.34470338033,0.171119603155963,709736,478605
1237.01116746546,0.170650950254702,718294,484899
1240.50596431943,0.170313510022147,724166,489243
1243.99643156495,0.169634633755519,730405,494230
1247.482569202,0.169533663951341,738202,499622
1250.96437723059,0.169018255491095,746702,505975
1254.44185565073,0.169125908225271,754935,511427
1257.9150044624,0.168675043508306,763219,517576
1261.38382366561,0.168494777145116,771220,523219
1266.00218099006,0.16880716512539,781438,529770
1269.46089777353,0.168451721113639,786924,533926
1272.91528494854,0.168445645031577,793669,538510
1276.36534251509,0.168238774773584,799733,542883
1279.81107047318,0.168171618724592,805062,546585
1283.2524688228,0.167739605933744,810059,550525
1286.68953756397,0.167742529211682,814364,553447
1290.12227669668,0.167772325375107,819067,556605
1294.69252726046,0.167459022212668,823773,560207
1298.11516397342,0.1673418938709,826910,562492
1301.53347107793,0.167317596452786,829742,564450
1304.94744857397,0.167164109547347,832473,566508
1308.35709646156,0.167460603511936,834662,567610
1311.76241474068,0.167453998117948,836158,568636
1315.16340341134,0.167722525286999,837917,569480
1318.56006247354,0.167845762014919,839188,570182
1323.08220627665,0.167961046500033,839982,570570
1326.46876291911,0.168520004718736,840256,570022
1329.85098995311,0.168825319366825,840279,569637
1333.22888737865,0.169086872324338,840183,569229
1336.60245519573,0.169680346253092,839477,567974
1339.97169340435,0.170100022442355,838281,566617
1343.33660200451,0.17084031231111,836845,564683
1347.81641185822,0.171885832315414,834756,561919
1351.17121803864,0.172708907650347,831739,558828
1354.52169461059,0.173404336704417,827419,555036
1357.86784157409,0.173914808746986,824237,552252
1361.20965892912,0.174829245452524,821272,549108
1364.5471466757,0.175336804049387,818712,546757
1367.88030481381,0.176281373082577,816848,544327
1371.20913334347,0.17672676937063,815526,542889
1375.64083643651,0.177843473014056,812121,539234
1378.95956254642,0.178481024984503,807103,535116
1382.27395904787,0.179253817106635,801380,530377
1385.58402594086,0.180764060944502,796498,525316
1388.88976322539,0.181800073731649,791216,520589
1392.19117090146,0.183658154970448,784194,513766
1395.48824896907,0.18551940642802,776781,506733
1398.78099742822,0.18777539399557,770954,500326
1403.16459376059,0.191278629258362,764917,492420
1406.4472398,0.194393332176711,761248,486556
1409.72555623094,0.197852277217935,758666,481059
1412.99954305343,0.201346975352296,756848,476060
1416.26920026746,0.205053615503512,754659,470649
1419.53452787302,0.208429813513626,753078,466026
1422.79552587013,0.211182117583735,751460,462087
1426.05219425877,0.213992254532814,750503,458522
1430.38768383047,0.217240767621459,749431,454455
1433.63424979937,0.219311539747142,748675,451837
1436.87648615981,0.220545643110077,747527,449864
1440.11439291179,0.221677767420305,747459,448652
1443.34797005532,0.222051309086957,746298,447570
1446.57721759038,0.222511811236502,744848,446227
1449.80213551698,0.223238529326653,743773,444838
1453.02272383511,0.223370134823843,742448,443911
1457.31010664614,0.223566487999577,739469,441930
1460.52059254454,0.223615511641104,737054,440437
1463.72674883448,0.223641932053436,734468,438865
1466.92857551595,0.223459364035225,731374,437200
1470.12607258897,0.22329764897003,728085,435396
1473.31924005352,0.223051588459508,724442,433463
1476.50807790962,0.222765610641098,721221,431820
1480.75312677125,0.221848143025506,715959,429576
1483.93186220761,0.221866231998126,712147,427271
1487.1062680355,0.221230017006055,707255,424958
1490.27634425493,0.220952015991941,702972,422655
1493.44209086591,0.22058149352402,698326,420220
1496.60350786842,0.21992521649294,692886,417577
1499.76059526247,0.219654309715623,687635,414671
1502.91335304806,0.219189239793935,682400,411955
1507.11029514902,0.218331978682805,674863,408210
1510.25295051487,0.217787824451611,668868,405091
1513.39127627226,0.217083756205033,662605,401949
1516.52527242119,0.216458422908877,655989,398509
1519.65493896165,0.215752294884606,649850,395422
1522.78027589366,0.215009683966224,642886,391854
1525.90128321721,0.214669582673044,635768,387819
1529.01796093229,0.214431847647107,628922,383853
1533.16679627258,0.213804977574837,618735,378181
1536.27337156793,0.213306337330305,610457,373550
1539.37561725481,0.212828593506098,602742,369235
1542.47353333323,0.212789821656277,594806,364406
1545.5671198032,0.212837041310896,586000,358972
1548.6563766647,0.212593452460288,577659,354061
1551.74130391774,0.212166925042764,568913,349043
1554.82190156232,0.211957949089886,559609,343500
1558.92263014194,0.211848402670944,547184,335958
1561.99312536678,0.212087508125186,538379,330370
1565.05929098316,0.211911495365545,528361,324354
1568.12112699108,0.212060534409054,519184,318611
1571.17863339054,0.212235236367506,509708,312670
1574.23181018153,0.212409892269374,500053,306624
1577.28065736407,0.212357871154594,490131,300576
1580.32517493815,0.21190035955297,480348,294887
1584.37779675709,0.211781164822439,467361,286993
1587.41221191143,0.21160419308123,457420,281003
1590.4422974573,0.211311240276107,447335,274993
1593.46805339471,0.210791363743106,436879,268887
1596.48947972367,0.211060276399329,427499,262951
1599.50657644416,0.210936834504355,417585,256926
1602.5193435562,0.210942263384237,407965,251004
1606.52963142574,0.21027336483166,395187,243517
1609.53229611804,0.210226725757338,385579,237622
1612.53063120187,0.210097323061732,375710,231609
1615.52463667724,0.210444985861926,366322,225641
1618.51431254415,0.209985987654402,356704,219949
1621.4996588026,0.209432786384116,346650,214022
1624.48067545259,0.209641655553605,337290,208143
1627.45736249411,0.209558374555168,327540,202165
1631.41954360299,0.209415907823474,314861,194403
1634.38612822478,0.209619624004564,305510,188541
1637.3483832381,0.209508159119518,296478,183014
1640.30630864297,0.20913508805715,287250,177470
1643.25990443938,0.210140596718973,278529,171684
1646.20917062732,0.210221884279656,270257,166554
1649.15410720681,0.211393026329886,261607,160789
1652.09471417783,0.211868577205221,252743,155171
1656.00878852603,0.21257432116658,240941,147685
1658.93929307732,0.213680984305168,231868,141762
1661.86546802014,0.213978328168257,222064,135675
1664.7873133545,0.214533814203408,212117,129432
1667.7048290804,0.215318464691436,200394,122058
1670.61801519784,0.215979893354291,188285,114508
1673.52687170682,0.217211653082548,173956,105494
1676.43139860734,0.216094002634976,158333,96267
1680.29736619487,0.217001974077884,136213,82645
1683.19179067565,0.218087661398591,119570,72366
1686.08188554796,0.218062507936819,103545,62671
1688.96765081182,0.218447241838979,88982,53809
1691.84908646722,0.218532010178546,76047,45978
1694.72619251415,0.216591667783234,64814,39362
1697.59896895263,0.218166659438978,55514,33592
1701.42260259077,0.223643644743074,45906,27430
