***Scan Config Information***,,,,,,,***Reference Scan Information***,,,,,,,,
Scan Config Name:,FolHerbario,,,,,,Scan Config Name:,Local New Reference,,,,,,,
Scan Config Type:,Slew,Num Section:,1,,,,Scan Config Type:,Slew,Num Section:,1,,,,,
Section Config Type:,Column,,,,,,Section Config Type:,Column,,,,,,,
Start Wavelength (nm):,900,,,,,,Start Wavelength (nm):,900,,,,,,,
End Wavelength (nm):,1700,,,,,,End Wavelength (nm):,1700,,,,,,,
Pattern Width (nm):,7.03,,,,,,Pattern Width (nm):,7.03,,,,,,,
Exposure (ms):,0.635,,,,,,Exposure (ms):,0.635,,,,,,,
Digital Resolution:,228,,,,,,Digital Resolution:,228,,,,,,,
Num Repeats:,20,,,,,,Num Repeats:,20,,,,,,,
PGA Gain:,64,(FixedPGA),,,,,PGA Gain:,64,(AutoPGA),,,,,,
System Temp (C):,38.38,,,,,,System Temp (C):,37.86,,,,,,,
Humidity (%):,46.5,,,,,,Humidity (%):,47.32,,,,,,,
Lamp ADC:,3077,3078,831,849,,,Lamp ADC:,3077,3078,831,849,,,,
Data Date-Time:,2025/04/03T10:30:31,,,,,,Data Date-Time:,2025/04/03T10:24:56,,,,,,,
Total Measurement Time in sec:,6.5062334,,,,,,,,,,,,,,
,,,,,,,,,,,,,,,
***General Information***,,,,,,,***Calibration Coefficients***,,,,,,,,
Model Name:,NIR-S-G1,,,,,,Shift Vector Coefficients:,-5.74589567087503,0.0468271937173058,-9.53581739805986E-05,,,,,
Serial Number:,C23R002,(95UB125GC0VC23R002),,,,,Pixel to Wavelength Coefficients:,1756.1983651918,-0.919335509971685,-0.000241825006214287,,,,,
GUI Version:,3.13.1,Revision:,930,,,,Versions (Cal/Ref/Cfg):,1,3,1,,,,,
TIVA Version:,2.4.10,,,,,,***Lamp Usage ***,,,,,,,,
DLPC Version:,2.3.1,,,,,,Total Time(hh:mm:ss):,5min 46sec ,,,,,,,
UUID:,DE:67:0C:88:67:76:74:21,,,,,,***Device/Error/Activation Status***,,,,,,,,
Main Board Version:,F,,,,,,Device Status:,0x00000001,Activation Status:,Activated,,,,,
Detector Board Version:,C,,,,,,Error status:,0x00000000,Error Code:,0x00000000000000000000000000000000,,,,,
,,,,,,,,,Error Details:,Not found,,,,,
***Scan Data***,,,,,,,,,,,,,,,
Wavelength (nm),Absorbance (AU),Reference Signal (unitless),Sample Signal (unitless)
901.701099874012,0.291359473435685,90776,46410
905.577788882674,0.288127150215753,98688,50832
909.450125041225,0.288036540573079,106748,54995
913.318108349663,0.285035854033309,115289,59807
917.18173880799,0.283151515509016,126803,66066
921.041016416205,0.282228640818168,139956,73074
926.179948793651,0.280357666135381,162992,85469
930.029069751605,0.280552328074309,183903,96391
933.873837859447,0.28019279056801,206718,108439
937.714253117177,0.277735842801031,227472,120003
941.550315524795,0.277044324144218,245568,129756
945.382025082302,0.27605329396222,260267,137837
949.209381789697,0.273949184922734,273418,145505
954.305752966049,0.273519703137942,288344,153600
958.122953023182,0.272931202036657,298255,159095
961.935800230204,0.272127978289181,308020,164608
965.744294587114,0.271096457783511,316991,169805
969.548436093912,0.269967914695698,325884,175023
973.348224750598,0.269653123473844,334095,179563
977.143660557173,0.26898717550809,342491,184358
982.197470532431,0.268171522219779,353126,190440
985.982749688744,0.267194473167078,360891,195066
989.763675994946,0.267232291264708,368255,199029
993.540249451036,0.266255427240924,375292,203289
997.312470057013,0.265731389549506,382344,207359
1001.08033781288,0.265071930264074,388968,211272
1004.84385271863,0.265002237486714,395063,214617
1009.8551014928,0.264231538122604,402907,219267
1013.60845974829,0.264030028768248,408546,222439
1017.35746515367,0.26325668252166,413004,225267
1021.10211770894,0.263231892546292,417197,227567
1024.8424174141,0.263084027940541,420680,229545
1028.57836426914,0.262487474658499,423869,231603
1032.30995827408,0.262612283469818,426173,232795
1037.27864584715,0.261873994319077,428715,234582
1041.00008320182,0.261639039506616,430907,235909
1044.71716770638,0.26169794628952,432637,236824
1048.42989936083,0.262097933839753,434418,237580
1052.13827816517,0.261375268687089,435607,238627
1055.8423041194,0.261594193478883,437706,239656
1059.54197722351,0.261386680212227,438877,240412
1064.46810359549,0.261586094979893,439663,240732
1068.15762004934,0.260716464533371,438069,240340
1071.84278365308,0.260825240585419,435114,238659
1075.52359440671,0.260267406968238,432223,237378
1079.20005231022,0.260550572415064,429996,236001
1082.87215736363,0.260216551425102,429629,235981
1086.53990956692,0.259700343972252,430337,236651
1091.42347473781,0.259502666480778,431857,237595
1095.08107029084,0.259209761469712,434354,239130
1098.73431299376,0.259242697466165,436723,240416
1102.38320284657,0.259414858239565,440398,242343
1106.02773984926,0.259210111333489,444132,244513
1109.66792400185,0.258524351140832,447713,246874
1113.30375530432,0.259358350929686,452611,249096
1118.14475927411,0.258654030317115,458586,252794
1121.77043392632,0.258475758018475,463379,255541
1125.39175572842,0.259503372967996,469208,258144
1129.00872468041,0.25920169563119,474591,261287
1132.62134078229,0.259516179232608,480366,264275
1136.22960403405,0.259695776410204,486240,267396
1139.83351443571,0.259806417123608,492017,270504
1144.6319572044,0.260313078279017,499391,274238
1148.22571095579,0.260234691036195,505016,277377
1151.81511185707,0.260448024755717,510554,280281
1155.40015990824,0.260864966642917,516188,283102
1158.9808551093,0.261305580801653,522151,286082
1162.55719746024,0.261834650500953,528023,288947
1166.12918696107,0.26210983526593,533218,291605
1170.88506852868,0.262617037417341,541206,295628
1174.44690137925,0.262693705436232,546888,298679
1178.00438137971,0.263109154830805,553126,301797
1181.55750853005,0.263744836333304,558791,304442
1185.10628283029,0.263255901103145,565406,308393
1188.65070428041,0.263493057792474,572038,311840
1192.19077288043,0.263919692247077,578544,315077
1196.90409324693,0.263674721291008,587322,320038
1200.43400519669,0.263612909202266,593967,323705
1203.95956429632,0.2634703955532,600814,327544
1207.48077054585,0.263404554010165,608037,331532
1210.99762394527,0.263177543878582,615123,335571
1214.51012449457,0.263082094155953,622225,339520
1218.01827219376,0.263090812628562,629900,343701
1222.68903135918,0.26244287137025,638883,349123
1226.18702240811,0.262002512828437,645420,353053
1229.68066060693,0.262259156386965,652361,356639
1233.16994595564,0.261380674203033,659796,361434
1236.65487845423,0.261468622343182,667947,365825
1240.13545810271,0.261471278893601,677725,371178
1243.61168490109,0.261177062172903,687765,376932
1248.23988286541,0.26098661733779,700265,383951
1251.70595301352,0.261053588687516,708193,388238
1255.16767031152,0.260644494679487,715204,392451
1258.6250347594,0.260685891357184,722701,396527
1262.07804635718,0.260802644316727,729462,400129
1265.52670510484,0.26063039261723,735458,403578
1268.97101100239,0.260643862248414,741728,407006
1273.55664776562,0.260428563585299,750089,411798
1276.99079701291,0.260650538331827,755845,414746
1280.42059341009,0.260617268600583,760946,417577
1283.84603695715,0.260674771938876,766405,420517
1287.26712765411,0.260352995976818,771687,423729
1290.68386550095,0.260292480740846,776689,426535
1294.09625049768,0.260742046723404,781695,428840
1298.63932605982,0.260410039179719,788203,432741
1302.04155440629,0.260502510826981,792377,434940
1305.43942990264,0.260563128868644,796600,437197
1308.83295254889,0.260486804781403,800732,439542
1312.22212234502,0.260699778077322,804606,441452
1315.60693929105,0.26055921651391,808294,443619
1320.11325745224,0.261089147475424,812446,445354
1323.487917748,0.261160158094989,814491,446402
1326.85822519365,0.261360251341728,817327,447750
1330.22417978919,0.261614782699311,819492,448673
1333.58578153461,0.262189886880924,821229,449029
1336.94303042993,0.262422166687289,822823,449660
1340.29592647513,0.262610833442178,823889,450047
1344.75968343522,0.263167733994178,824904,450024
1348.10242283016,0.263975843589566,824648,449048
1351.44080937499,0.264415137281045,823545,447994
1354.77484306971,0.265209129149491,821621,446131
1358.10452391432,0.265533122238521,819794,444807
1361.42985190881,0.266054706984911,817812,443199
1364.75082705319,0.266655364292243,817279,442298
1369.17202281219,0.267187286266081,817918,442102
1372.48284130632,0.267750210245898,817847,441491
1375.78930695032,0.268609366581008,815977,439611
1379.09141974422,0.269102545944747,812567,437277
1382.38917968801,0.269832738388023,808877,434560
1385.68258678168,0.27091266874732,805862,431865
1388.97164102524,0.27202817288431,802831,429137
1393.35027558315,0.273833676257668,796931,424216
1396.62917317645,0.275545577629575,793502,420729
1399.90371791964,0.277890010964026,791422,417367
1403.17390981272,0.280359239626654,790181,414350
1406.43974885568,0.28321048246055,790725,411922
1409.70123504853,0.286121195448961,791443,409542
1412.95836839128,0.289483682190127,791970,406654
1417.29444174809,0.293475987953322,791980,402938
1420.54141844057,0.29629767378659,792066,400372
1423.78404228294,0.299584330354395,792067,397354
1427.0223132752,0.301924880485609,791381,394876
1430.25623141734,0.304175025207863,790516,392406
1433.48579670937,0.305610024591165,789858,390786
1436.71100915129,0.307125839977333,789129,389065
1441.00452130702,0.307631752005169,787212,387668
1444.21957709868,0.308283935664814,785796,386390
1447.43028004022,0.308905638715527,783934,384923
1450.63663013166,0.308856484651472,781758,383898
1453.83862737298,0.309084865645227,779056,382370
1457.0362717642,0.30903397935846,775968,380899
1460.2295633053,0.309291587085925,772957,379196
1464.48051425993,0.308912670896373,767674,376933
1467.66364915076,0.308948819251336,763980,375088
1470.84243119149,0.308133835897913,759547,373612
1474.01686038211,0.307613672043323,755393,372014
1477.18693672261,0.307271101319169,750285,369790
1480.35266021301,0.306302098584733,744981,367996
1483.51403085329,0.306064965040737,739253,365366
1487.72242060682,0.305250163076809,732247,362583
1490.87363459684,0.304791179577887,726077,359908
1494.02049573675,0.304012802486268,719980,357526
1497.16300402654,0.303489488269032,713984,354976
1500.30115946623,0.302871289881387,707674,352340
1503.4349620558,0.302238647045274,700573,349313
1506.56441179526,0.301883757533608,693508,346073
1510.7302403477,0.300777384840364,684052,342225
1513.8495334369,0.299695488635021,676189,339135
1516.96447367598,0.298996293974954,667483,335308
1520.07506106496,0.298658132153327,659745,331679
1523.18129560382,0.298030971928167,652004,328261
1526.28317729258,0.297500502574826,644112,324684
1529.38070613122,0.297067077679978,635233,320528
1533.50397348256,0.296445061744649,623756,315188
1536.59134567094,0.29604085414919,615103,311105
1539.67436500921,0.29541669449287,606196,307041
1542.75303149736,0.295265681926239,596948,302462
1545.82734513541,0.29474875853711,587582,298071
1548.89730592334,0.293999254911721,578164,293800
1551.96291386116,0.294256066407535,568645,288792
1556.04362001141,0.293201079347876,554749,282420
1559.09907129897,0.293260554735952,545295,277569
1562.15016973641,0.292720317069901,535046,272691
1565.19691532375,0.292980589119656,524983,267402
1568.23930806097,0.292784451491429,514779,262323
1571.27734794808,0.292613340940299,504776,257327
1574.31103498508,0.292238796444511,494749,252433
1578.34917993424,0.291732779976489,481135,245773
1581.37271032098,0.291276640277313,470500,240593
1584.39188785761,0.29106921068429,460764,235727
1587.40671254412,0.290500205953483,450818,230941
1590.41718438052,0.290429288911997,440076,225475
1593.42330336681,0.289482746655823,429131,220347
1596.42506950299,0.289162710123771,419353,215485
1600.42065325106,0.28870657240709,405668,208672
1603.41226273698,0.288079491639739,395392,203680
1606.39951937278,0.287541960602341,384978,198561
1609.38242315848,0.28709078407097,375450,193848
1612.36097409406,0.287385845709099,365778,188726
1615.33517217953,0.285893260348426,355897,184260
1618.30501741489,0.285825326038649,346224,179280
1622.25803996186,0.285693408713151,333512,172750
1625.21772854696,0.285569172978287,323969,167855
1628.17306428194,0.28491177149872,314539,163216
1631.12404716682,0.284631990298226,305200,158472
1634.07067720158,0.28496002646449,296162,153663
1637.01295438623,0.284268638794547,286895,149092
1639.95087872077,0.284298417814501,277308,144100
1643.86134006665,0.283415834955552,264690,137823
1646.78910775092,0.283632171986118,255522,132983
1649.71252258509,0.283499214281689,246262,128203
1652.63158456914,0.284484194870055,237426,123323
1655.54629370308,0.285067540368858,228480,118517
1658.45664998691,0.28472867024637,219747,114076
1661.36265342063,0.285194920807666,210559,109189
1665.23055356542,0.286733918420917,197396,102001
1668.12640034887,0.286856277145809,186890,96545
1671.01789428222,0.28663314416358,175342,90626
1673.90503536545,0.287714214992676,162258,83655
1676.78782359857,0.288655667799804,147979,76128
1679.66625898158,0.287957233273806,133186,68628
1682.54034151448,0.288702186697801,117843,60618
1686.36568045817,0.291334396157526,98113,50164
1689.22960634081,0.290392932181537,84210,43149
1692.08917937333,0.295161428033953,71667,36321
1694.94439955575,0.293070405257295,60876,31001
1697.79526688805,0.291362575077035,51489,26324
1700.64178137024,0.293618864370867,43983,22370
