***Scan Config Information***,,,,,,,***Reference Scan Information***,,,,,,,,
Scan Config Name:,FolHerbario,,,,,,Scan Config Name:,Local New Reference,,,,,,,
Scan Config Type:,Slew,Num Section:,1,,,,Scan Config Type:,Slew,Num Section:,1,,,,,
Section Config Type:,Column,,,,,,Section Config Type:,Column,,,,,,,
Start Wavelength (nm):,900,,,,,,Start Wavelength (nm):,900,,,,,,,
End Wavelength (nm):,1700,,,,,,End Wavelength (nm):,1700,,,,,,,
Pattern Width (nm):,7.03,,,,,,Pattern Width (nm):,7.03,,,,,,,
Exposure (ms):,0.635,,,,,,Exposure (ms):,0.635,,,,,,,
Digital Resolution:,228,,,,,,Digital Resolution:,228,,,,,,,
Num Repeats:,20,,,,,,Num Repeats:,20,,,,,,,
PGA Gain:,64,(FixedPGA),,,,,PGA Gain:,64,(AutoPGA),,,,,,
System Temp (C):,39.01,,,,,,System Temp (C):,38.38,,,,,,,
Humidity (%):,46.58,,,,,,Humidity (%):,47.13,,,,,,,
Lamp ADC:,3068,3083,845,843,,,Lamp ADC:,3069,3082,845,842,,,,
Data Date-Time:,2025/04/03T10:38:05,,,,,,Data Date-Time:,2025/04/03T10:30:29,,,,,,,
Total Measurement Time in sec:,6.4911807,,,,,,,,,,,,,,
,,,,,,,,,,,,,,,
***General Information***,,,,,,,***Calibration Coefficients***,,,,,,,,
Model Name:,NIR-S-G1,,,,,,Shift Vector Coefficients:,-4.78706677830951,0.0420606707536571,-9.21439965724389E-05,,,,,
Serial Number:,C23R001,(95UB125GC0VC23R001),,,,,Pixel to Wavelength Coefficients:,1777.69850932213,-0.910890781979712,-0.000240535926235214,,,,,
GUI Version:,3.13.1,Revision:,930,,,,Versions (Cal/Ref/Cfg):,1,3,1,,,,,
TIVA Version:,2.4.10,,,,,,***Lamp Usage ***,,,,,,,,
DLPC Version:,2.3.1,,,,,,Total Time(hh:mm:ss):,5min 22sec ,,,,,,,
UUID:,DE:67:0C:88:67:3E:75:21,,,,,,***Device/Error/Activation Status***,,,,,,,,
Main Board Version:,F,,,,,,Device Status:,0x00000001,Activation Status:,Activated,,,,,
Detector Board Version:,C,,,,,,Error status:,0x00000000,Error Code:,0x00000000000000000000000000000000,,,,,
,,,,,,,,,Error Details:,Not found,,,,,
***Scan Data***,,,,,,,,,,,,,,,
Wavelength (nm),Absorbance (AU),Reference Signal (unitless),Sample Signal (unitless)
900.868887283122,0.38459066326851,105349,43455
904.747472781646,0.378419087680883,113564,47514
909.912185107076,0.366806489940221,124274,53404
913.780668096698,0.367157385784054,134850,57902
917.644821439648,0.359985615000492,148047,64627
921.504645135925,0.354034216647367,163587,72396
925.36013918553,0.348661013161095,181999,81547
929.211303588463,0.343795307901116,203321,92127
933.058138344724,0.337679677582689,225316,103541
938.180516347137,0.330392875997219,253122,118287
942.017248594496,0.325689317331079,271494,128254
945.849651195182,0.320545735731268,288608,137963
949.677724149196,0.315149966404163,304224,147246
953.501467456539,0.309831389603616,319759,156672
957.320881117208,0.305184682568107,334632,165723
961.135965131206,0.29997429400884,349659,175255
966.216008810601,0.293651445153067,369947,188143
970.020990315697,0.289838292530503,384834,197440
973.821642174121,0.285236584217098,398758,206763
977.617964385872,0.281095809180727,412541,215959
981.409956950951,0.276948749074056,425360,224806
985.197619869358,0.272820796224608,436969,233147
988.980953141092,0.26980095020762,447221,240282
994.01866249747,0.264949588329369,459396,249596
997.791893260303,0.261042712079091,466416,255700
1001.56079437646,0.258259213276086,473506,261256
1005.32536584595,0.254538597498878,478563,266318
1009.08560766877,0.251287304678354,483528,271103
1012.84151984491,0.24748690558174,486946,275419
1016.59310237438,0.244701329907154,488748,278217
1021.58847740774,0.240789029697888,490756,281888
1025.32995742831,0.237167017748711,491630,284755
1029.06710780221,0.234319062098241,491775,286713
1032.79992852944,0.231465849185994,490332,287756
1036.52841960999,0.228654014856776,489294,289012
1040.25258104387,0.226706722426473,487973,289527
1043.97241283108,0.224139556673908,487560,290997
1047.68791497161,0.221662181942692,487184,292436
1052.63518281973,0.218488958679191,486252,294017
1056.34058245136,0.216234962788533,486211,295522
1060.04165243632,0.213742096417256,488123,298392
1063.73839277461,0.212391910142717,491218,301219
1067.43080346623,0.209736548933662,492694,303977
1071.11888451118,0.208316555730479,491097,303984
1074.80263590945,0.206417154870379,486895,302704
1079.70756943455,0.203113005035059,481618,301710
1083.38121832392,0.201526363504779,480843,302327
1087.05053756662,0.199990473296081,481144,303588
1090.71552716264,0.198442345984877,481417,304845
1094.376187112,0.196853081300162,484039,307629
1098.03251741468,0.195250175341233,485609,309768
1101.68451807069,0.194103459187264,487898,312051
1106.54711727277,0.192524690994471,491242,315334
1110.18901541988,0.190782148041657,493652,318155
1113.82658392031,0.189867064531195,496202,320473
1117.45982277408,0.189135134645402,498951,322792
1121.08873198117,0.18806913241722,501154,325014
1124.71331154159,0.187520479420992,503706,327082
1128.33356145534,0.186668270946386,506727,329690
1133.1538263344,0.186011125083854,510175,332436
1136.76397373924,0.185474830905428,512568,334408
1140.36979149742,0.185564249889263,515151,336024
1143.97127960892,0.184711161747431,517927,338499
1147.56843807374,0.184817699313194,520740,340254
1151.1612668919,0.184645026212877,523507,342198
1154.74976606338,0.185043860820636,526905,344103
1159.52769661943,0.185171999983298,530879,346596
1163.10609328201,0.185308069383035,533719,348341
1166.68016029792,0.185137868613265,537057,350657
1170.24989766716,0.185273652838314,540502,352796
1173.81530538972,0.186193648332446,545032,355000
1177.37638346562,0.186145714748129,549654,358050
1180.93313189484,0.18698346653664,553933,360142
1185.66872812787,0.187369367554402,561216,364553
1189.21537404818,0.187639237995958,566887,368008
1192.75769032183,0.186972060690934,572249,372060
1196.29567694881,0.18718497381543,578651,376038
1199.82933392911,0.186892046704989,585107,380490
1203.35866126274,0.186721071647153,591734,384951
1206.8836589497,0.185980918189054,598482,390005
1211.57692085971,0.18528056391752,608066,396890
1215.09181603776,0.184060286731221,615470,402853
1218.60238156915,0.182435683293328,623449,409605
1222.10861745386,0.180512618775724,630670,416188
1225.6105236919,0.178608570929794,637938,422834
1229.10810028326,0.177375890266976,645483,429051
1232.60134722796,0.175819642753088,652158,435044
1236.09026452598,0.174414910603546,659488,441359
1240.73541925074,0.172997405750754,672304,451407
1244.21423403986,0.171638697663877,683397,460293
1247.68871918231,0.170865912995427,695156,469047
1251.15887467809,0.169837515440336,705911,477433
1254.62470052719,0.169864512303441,717892,485506
1258.08619672962,0.168828364394496,728354,493758
1261.54336328538,0.167829626670815,737925,501398
1266.14618368713,0.16728088160445,751251,511098
1269.59324773399,0.16675598851884,759713,517480
1273.03598213417,0.16594532205891,769263,524964
1276.47438688769,0.165489623867894,776762,530638
1279.90846199453,0.165033015209147,784370,536399
1283.3382074547,0.164519801545964,791189,541702
1286.76362326819,0.163819507469871,797634,546996
1291.32410934692,0.163144496825289,805061,552948
1294.73942265151,0.162667960773148,809709,556751
1298.15040630944,0.162494007881945,814659,560379
1301.55706032069,0.162215695762759,819238,563890
1304.95938468526,0.161916548504812,822363,566431
1308.35737940317,0.161826367240439,824985,568355
1311.7510444744,0.161421479923007,827585,570678
1316.26919623011,0.161720789136166,830119,572031
1319.65275879245,0.161726340741506,831025,572648
1323.03199170811,0.162003370151456,831715,572758
1326.40689497709,0.162383667189501,832198,572589
1329.77746859941,0.16295092438105,831941,571665
1333.14371257505,0.1633326038301,831028,570536
1336.50562690402,0.164155753625817,830096,568817
1340.98144433671,0.165609445582228,828548,565859
1344.33325615678,0.166757314642047,826520,562984
1347.68073833018,0.168480565335979,823589,558766
1351.0238908569,0.169870851660881,820389,554816
1354.36271373695,0.171255577760339,815859,549996
1357.69720697033,0.172772183016776,811681,545272
1361.02737055704,0.174309610218549,807259,540385
1365.46085366672,0.176344667274532,803156,535125
1368.78091474452,0.177482503371378,801355,532528
1372.09664617566,0.178516178227663,798937,529659
1375.40804796012,0.180276059910968,794925,524868
1378.71512009791,0.181942225776986,789269,519138
1382.01786258902,0.183821017713637,782610,512536
1385.31627543347,0.186019436494451,777217,506434
1388.61035863124,0.188711381497546,770877,499199
1392.99573455567,0.192885957980244,759114,486879
1396.27971524454,0.196435639976173,749054,476516
1399.55936628673,0.201019046051099,739744,465653
1402.83468768226,0.206972270209476,733351,455344
1406.10567943111,0.213568415447537,729004,445822
1409.3723415333,0.221105367705888,726141,436431
1412.6346739888,0.229164825685756,723545,426875
1416.97771559022,0.239997962530151,721641,415263
1420.22994553682,0.247470327968544,720617,407600
1423.47784583676,0.25494921807753,719779,400175
1426.72141649002,0.261465214545231,719124,393857
1429.96065749661,0.266981198622552,717855,388200
1433.19556885653,0.271456180062722,717514,384038
1436.42615056978,0.275076925152205,717025,380590
1440.72685784817,0.278157556194907,716623,377688
1443.94733705251,0.279800703245804,716155,376016
1447.16348661018,0.28097199046877,714896,374344
1450.37530652118,0.28172256511422,713682,373063
1453.58279678551,0.282239451415859,711816,371645
1456.78595740317,0.282757526886744,710144,370330
1459.98478837415,0.282792747471431,707977,369170
1464.24316132953,0.282469816815128,704216,367482
1467.43188979161,0.282168127814052,701023,366070
1470.61628860702,0.281592141979259,697994,364972
1473.79635777575,0.280781094559532,694779,363970
1476.97209729782,0.279531878685326,691392,363239
1480.14350717321,0.278089617119646,687952,362634
1483.31058740193,0.276643257687437,684326,361926
1487.52662603429,0.274821239424194,679243,360748
1490.68360375411,0.273611100727292,675511,359767
1493.83625182725,0.27202808766963,671261,358809
1496.98457025372,0.270513550982375,666797,357668
1500.12855903353,0.269140944062883,662552,356516
1503.26821816666,0.267032044592323,658096,355842
1506.40354765311,0.265767376672435,653468,354370
1510.57725196245,0.26355564031913,647103,352710
1513.70247894001,0.261768053840798,642077,351414
1516.82337627089,0.260218893197917,636246,349467
1519.9399439551,0.25898797413099,631388,347783
1523.05218199264,0.257296497663004,625778,346038
1526.16009038351,0.2564979461653,620363,343675
1529.2636691277,0.255404016290802,614328,341190
1532.36291822522,0.254288181524943,607829,338449
1536.48851534932,0.253601371696932,599169,334155
1539.57766193794,0.252570174043621,592911,331451
1542.66247887988,0.252128750118723,586013,327928
1545.74296617516,0.251642407680418,579272,324519
1548.81912382376,0.251161741134384,571968,320782
1551.89095182569,0.250465210412888,564511,317108
1554.95845018095,0.250183265598896,556767,312961
1559.04171298203,0.249250018460242,546252,307711
1562.09910882838,0.248914319818204,538339,303488
1565.15217502807,0.248636267225156,530230,299108
1568.20091158108,0.248234422419246,522163,294830
1571.24531848742,0.247117028510545,513386,290621
1574.28539574709,0.246786542578873,505144,286173
1577.32114336008,0.247016149284586,496321,281026
1581.36207183814,0.245654630965231,484535,275214
1584.38771694224,0.244678511804764,475574,270732
1587.40903239966,0.244006797302253,466757,266124
1590.42601821041,0.242902322019917,457496,261508
1593.43867437448,0.2410674722281,447531,256895
1596.44700089189,0.23984234162788,439339,252905
1599.45099776262,0.239165423073786,429835,247820
1603.44959191766,0.237230623034998,417196,241607
1606.44348627949,0.236201681958426,407778,236713
1609.43305099465,0.23513305915186,398670,231996
1612.41828606314,0.233735497040502,389359,227308
1615.39919148495,0.232237386378912,379548,222346
1618.37576726009,0.231983209218428,370499,217172
1621.34801338856,0.231382531731891,361133,211975
1625.30427322059,0.229678279201002,348471,205347
1628.26641684016,0.229667727451711,339372,199990
1631.22423081305,0.229477940180136,330166,194650
1634.17771513927,0.228252083716608,320692,189599
1637.12686981883,0.22797904779448,311469,184262
1640.0716948517,0.226974635692997,302356,179285
1643.01219023791,0.228159438756681,293455,173533
1646.92611574692,0.228562406645018,281510,166315
1649.85650862422,0.227483312964599,272040,161120
1652.78257185485,0.229162199460118,263651,155549
1655.70430543881,0.229854325289524,254882,150136
1658.6217093761,0.230938654170432,246048,144571
1661.53478366672,0.23266894192322,236725,138540
1664.44352831066,0.233479718184267,227454,132866
1668.31511949665,0.233314082751078,213092,124524
1671.21376163169,0.234902920910249,201670,117419
1674.10807412006,0.237355474719439,188659,109225
1676.99805696176,0.236428025171153,173670,100762
1679.88371015678,0.236397634073475,157049,91125
1682.76503370514,0.237663251686614,139908,80943
1685.64202760682,0.240900701498609,122731,70478
1688.51469186182,0.240816405655825,105925,60839
1692.33817586257,0.243053292170331,85473,48840
1695.20073760867,0.246663945756217,73098,41423
1698.05896970811,0.253700565869438,62602,34905
1700.91287216087,0.249547389010634,53339,30026
