***Scan Config Information***,,,,,,,***Reference Scan Information***,,,,,,,,
Scan Config Name:,FolHerbario,,,,,,Scan Config Name:,Local New Reference,,,,,,,
Scan Config Type:,Slew,Num Section:,1,,,,Scan Config Type:,Slew,Num Section:,1,,,,,
Section Config Type:,Column,,,,,,Section Config Type:,Column,,,,,,,
Start Wavelength (nm):,900,,,,,,Start Wavelength (nm):,900,,,,,,,
End Wavelength (nm):,1700,,,,,,End Wavelength (nm):,1700,,,,,,,
Pattern Width (nm):,7.03,,,,,,Pattern Width (nm):,7.03,,,,,,,
Exposure (ms):,0.635,,,,,,Exposure (ms):,0.635,,,,,,,
Digital Resolution:,228,,,,,,Digital Resolution:,228,,,,,,,
Num Repeats:,20,,,,,,Num Repeats:,20,,,,,,,
PGA Gain:,64,(FixedPGA),,,,,PGA Gain:,64,(AutoPGA),,,,,,
System Temp (C):,41.14,,,,,,System Temp (C):,41.46,,,,,,,
Humidity (%):,46.54,,,,,,Humidity (%):,47.96,,,,,,,
Lamp ADC:,3077,3079,831,850,,,Lamp ADC:,3077,3079,831,849,,,,
Data Date-Time:,2025/04/03T11:07:52,,,,,,Data Date-Time:,2025/04/03T11:03:59,,,,,,,
Total Measurement Time in sec:,6.4695526,,,,,,,,,,,,,,
,,,,,,,,,,,,,,,
***General Information***,,,,,,,***Calibration Coefficients***,,,,,,,,
Model Name:,NIR-S-G1,,,,,,Shift Vector Coefficients:,-5.74589567087503,0.0468271937173058,-9.53581739805986E-05,,,,,
Serial Number:,C23R002,(95UB125GC0VC23R002),,,,,Pixel to Wavelength Coefficients:,1756.1983651918,-0.919335509971685,-0.000241825006214287,,,,,
GUI Version:,3.13.1,Revision:,930,,,,Versions (Cal/Ref/Cfg):,1,3,1,,,,,
TIVA Version:,2.4.10,,,,,,***Lamp Usage ***,,,,,,,,
DLPC Version:,2.3.1,,,,,,Total Time(hh:mm:ss):,10min 3sec ,,,,,,,
UUID:,DE:67:0C:88:67:76:74:21,,,,,,***Device/Error/Activation Status***,,,,,,,,
Main Board Version:,F,,,,,,Device Status:,0x00000001,Activation Status:,Activated,,,,,
Detector Board Version:,C,,,,,,Error status:,0x00000000,Error Code:,0x00000000000000000000000000000000,,,,,
,,,,,,,,,Error Details:,Not found,,,,,
***Scan Data***,,,,,,,,,,,,,,,
Wavelength (nm),Absorbance (AU),Reference Signal (unitless),Sample Signal (unitless)
901.701099874012,0.277929939004337,90921,47944
905.577788882674,0.2779874227823,98825,52105
909.450125041225,0.272693092887439,106535,56859
913.318108349663,0.271605513255224,115563,61832
917.18173880799,0.267332789921805,126487,68346
921.041016416205,0.266464915128716,139917,75754
926.179948793651,0.264498101472014,161856,88030
930.029069751605,0.260049029459657,181805,99898
933.873837859447,0.259647911198531,204845,112662
937.714253117177,0.257307746234237,226122,125036
941.550315524795,0.253643068233294,244163,136156
945.382025082302,0.253253388484658,260171,145213
949.209381789697,0.251179504391104,273143,153183
954.305752966049,0.248878016409587,288968,162919
958.122953023182,0.247580401654926,299001,169080
961.935800230204,0.245563705531434,308735,175397
965.744294587114,0.244054727135373,317652,181091
969.548436093912,0.242905742674029,326559,186662
973.348224750598,0.241101376404126,334951,192256
977.143660557173,0.239691599089749,343137,197595
982.197470532431,0.239138234923594,354237,204247
985.982749688744,0.237554922258089,361913,209435
989.763675994946,0.236604124592704,369298,214177
993.540249451036,0.234939913350273,376589,219244
997.312470057013,0.234059922691096,383700,223837
1001.08033781288,0.232227702634097,390442,228733
1004.84385271863,0.231581295750781,396737,232767
1009.8551014928,0.230417928797112,404957,238227
1013.60845974829,0.229093323171208,410267,242088
1017.35746515367,0.228232681213528,415158,245460
1021.10211770894,0.227956968158223,419225,248022
1024.8424174141,0.226028200816925,422732,251210
1028.57836426914,0.225599636203527,426069,253443
1032.30995827408,0.22535126650068,428680,255142
1037.27864584715,0.223566698078107,430861,257496
1041.00008320182,0.223026517826638,433123,259170
1044.71716770638,0.222133446100661,434900,260769
1048.42989936083,0.22188289822005,436661,261976
1052.13827816517,0.220762274131201,437687,263270
1055.8423041194,0.219938586141232,439277,264728
1059.54197722351,0.219377732075453,441002,266111
1064.46810359549,0.218520245254982,441232,266776
1068.15762004934,0.217983732836996,439858,266274
1071.84278365308,0.216826308871462,436450,264916
1075.52359440671,0.216122803232864,433426,263507
1079.20005231022,0.215516619633147,431445,262669
1082.87215736363,0.215790812055076,431277,262401
1086.53990956692,0.21454990200598,431805,263474
1091.42347473781,0.214502528864829,433667,264639
1095.08107029084,0.21339190576717,435987,266736
1098.73431299376,0.212870099500092,438167,268392
1102.38320284657,0.212232303815972,441707,270958
1106.02773984926,0.212242098693526,445605,273343
1109.66792400185,0.21158147320139,449220,275980
1113.30375530432,0.211867820376263,453787,278602
1118.14475927411,0.211265590443139,460219,282943
1121.77043392632,0.210671690635365,465155,286369
1125.39175572842,0.210505926804949,470589,289825
1129.00872468041,0.211025740408282,476275,292976
1132.62134078229,0.210604841870504,481735,296622
1136.22960403405,0.210491115077195,487441,300214
1139.83351443571,0.210386245853067,492956,303684
1144.6319572044,0.210776816464213,500636,308138
1148.22571095579,0.210835572664401,506469,311686
1151.81511185707,0.211040763610119,511987,314933
1155.40015990824,0.211380252379926,517540,318100
1158.9808551093,0.211691992133611,523742,321681
1162.55719746024,0.211419707987594,529465,325400
1166.12918696107,0.211926827325177,534495,328108
1170.88506852868,0.212046086643998,542328,332825
1174.44690137925,0.212074428198764,548590,336646
1178.00438137971,0.212379418707094,554316,339921
1181.55750853005,0.212807204640212,560342,343278
1185.10628283029,0.21277078293677,566734,347223
1188.65070428041,0.212567791218939,573375,351456
1192.19077288043,0.21283834733568,579996,355293
1196.90409324693,0.212113967154132,588723,361241
1200.43400519669,0.21234694756728,595801,365388
1203.95956429632,0.211745426406052,602540,370033
1207.48077054585,0.211227211205583,609716,374887
1210.99762394527,0.210441368958761,616369,379664
1214.51012449457,0.210193873394649,623647,384366
1218.01827219376,0.208956242628832,630876,389931
1222.68903135918,0.207616033907749,640313,396987
1226.18702240811,0.206865470380585,646738,401664
1229.68066060693,0.206325070438403,653841,406581
1233.16994595564,0.205257030560455,660949,412013
1236.65487845423,0.204792431792696,669479,417777
1240.13545810271,0.204184328008915,679043,424339
1243.61168490109,0.203356143908534,689067,431425
1248.23988286541,0.202818292593866,701791,439936
1251.70595301352,0.202348710213362,709400,445187
1255.16767031152,0.201926487560335,716621,450156
1258.6250347594,0.201435723324131,723950,455274
1262.07804635718,0.201155734128614,730787,459870
1265.52670510484,0.200689803240147,736788,464144
1268.97101100239,0.200335743060666,742835,468335
1273.55664776562,0.199770240352364,751482,474404
1276.99079701291,0.199842300513383,757052,477841
1280.42059341009,0.199253947464918,761946,481582
1283.84603695715,0.198926817617941,767614,485530
1287.26712765411,0.199029314107995,773137,488908
1290.68386550095,0.198522239479987,778049,492589
1294.09625049768,0.198476318570963,782809,495655
1298.63932605982,0.197935004041464,789440,500477
1302.04155440629,0.19776068870141,793896,503504
1305.43942990264,0.197395080084777,797992,506528
1308.83295254889,0.197317812006643,802084,509216
1312.22212234502,0.197321431337063,805975,511682
1315.60693929105,0.197249363319799,809884,514249
1320.11325745224,0.197001389157139,813470,516821
1323.487917748,0.196969206716524,815706,518280
1326.85822519365,0.197540910470638,818700,519498
1330.22417978919,0.197590885360986,821119,520973
1333.58578153461,0.198093871551328,822768,521415
1336.94303042993,0.19847556156912,823891,521668
1340.29592647513,0.198856244661522,825524,522244
1344.75968343522,0.199204247244892,826200,522253
1348.10242283016,0.200071009489686,825755,520931
1351.44080937499,0.200590316712091,824364,519432
1354.77484306971,0.201300302377065,822055,517131
1358.10452391432,0.20205831579603,819889,514869
1361.42985190881,0.202532190042587,818463,513413
1364.75082705319,0.203424662392181,817816,511954
1369.17202281219,0.204469495986439,818934,511422
1372.48284130632,0.205129046875549,818870,510606
1375.78930695032,0.206018393525668,816560,508124
1379.09141974422,0.206565550573406,812957,505245
1382.38917968801,0.207606130051158,809554,501926
1385.68258678168,0.208815248951492,806899,498889
1388.97164102524,0.210473934237346,803869,495121
1393.35027558315,0.212751347995484,798404,489183
1396.62917317645,0.214942900572604,794735,484484
1399.90371791964,0.217168467005218,792030,480367
1403.17390981272,0.220520925492223,791503,476356
1406.43974885568,0.224188379342136,791841,472552
1409.70123504853,0.228767477685264,793159,468374
1412.95836839128,0.232986935731559,793348,463956
1417.29444174809,0.238692228010091,793414,457939
1420.54141844057,0.243312363289387,793433,453104
1423.78404228294,0.247706102283292,793539,448603
1427.0223132752,0.251649681680652,793100,444302
1430.25623141734,0.255108798581797,792002,440167
1433.48579670937,0.258135417296634,791913,437061
1436.71100915129,0.260565101204125,790691,433952
1441.00452130702,0.262707051113211,789054,430923
1444.21957709868,0.264044741258843,787530,428768
1447.43028004022,0.265356455062531,785686,426474
1450.63663013166,0.265944748303753,783661,424799
1453.83862737298,0.266273707378844,780928,422997
1457.0362717642,0.266442592003621,777863,421173
1460.2295633053,0.266941816780715,774553,418899
1464.48051425993,0.266828520141055,769310,416172
1467.66364915076,0.266736466241679,765410,414150
1470.84243119149,0.26600070082998,761214,412578
1474.01686038211,0.266134998704543,757068,410204
1477.18693672261,0.265502244158963,752221,408172
1480.35266021301,0.26490132617226,746926,405860
1483.51403085329,0.264203994541003,741294,403447
1487.72242060682,0.26331243321191,734095,400350
1490.87363459684,0.262545352275205,727938,397694
1494.02049573675,0.262054919984129,721913,394848
1497.16300402654,0.260917628407851,715488,392360
1500.30115946623,0.260263901891631,709055,389418
1503.4349620558,0.259313044680764,702270,386537
1506.56441179526,0.258688134260747,695130,383158
1510.7302403477,0.257624204058427,685696,378885
1513.8495334369,0.257025180704328,678129,375221
1516.96447367598,0.255817669719593,669111,371262
1520.07506106496,0.254848969404342,661472,367843
1523.18129560382,0.254252865993809,653290,363792
1526.28317729258,0.253565235527957,645515,360032
1529.38070613122,0.252972408294022,636810,355662
1533.50397348256,0.252078968806462,625270,349936
1536.59134567094,0.251777453487956,616451,345240
1539.67436500921,0.251668552119156,607685,340416
1542.75303149736,0.251033453298688,598232,335611
1545.82734513541,0.250526579683201,589143,330898
1548.89730592334,0.250217538940825,579458,325690
1551.96291386116,0.249881538178967,569808,320514
1556.04362001141,0.249704819354366,556353,313073
1559.09907129897,0.249774622373245,546523,307492
1562.15016973641,0.249581306503284,536514,301995
1565.19691532375,0.249250864011642,526289,296465
1568.23930806097,0.249260071064178,515867,290588
1571.27734794808,0.249011873940219,506128,285265
1574.31103498508,0.248980778406123,496139,279655
1578.34917993424,0.249148619882112,482837,272052
1581.37271032098,0.248372818042874,472412,266654
1584.39188785761,0.247987050485482,462213,261129
1587.40671254412,0.247756173389576,451940,255461
1590.41718438052,0.247415571258651,441545,249781
1593.42330336681,0.246895885645426,430704,243940
1596.42506950299,0.246620521929001,421058,238628
1600.42065325106,0.245076338114699,406848,231396
1603.41226273698,0.245114596921731,396854,225692
1606.39951937278,0.2448472065373,386630,220013
1609.38242315848,0.244067694916503,376894,214858
1612.36097409406,0.243225776920751,367335,209815
1615.33517217953,0.243258233957154,357589,204233
1618.30501741489,0.243064571048851,347972,198829
1622.25803996186,0.243048740938104,335100,191481
1625.21772854696,0.242544297824981,325700,186326
1628.17306428194,0.242720831396595,316141,180784
1631.12404716682,0.241900001342738,306892,175827
1634.07067720158,0.241994656300295,297769,170563
1637.01295438623,0.24205096539091,288627,165305
1639.95087872077,0.241100979779399,278733,159988
1643.86134006665,0.241382882486594,266667,152963
1646.78910775092,0.242036983986204,257508,147487
1649.71252258509,0.242064726184857,248031,142050
1652.63158456914,0.243162885803416,239208,136651
1655.54629370308,0.243167242514912,230302,131562
1658.45664998691,0.244096994635249,221940,126514
1661.36265342063,0.245864325531573,212900,120868
1665.23055356542,0.246962821106783,200580,113586
1668.12640034887,0.249368485271884,191111,107626
1671.01789428222,0.248197483205071,180550,101953
1673.90503536545,0.250674622426378,169046,94914
1676.78782359857,0.252660929131734,156545,87494
1679.66625898158,0.251697411037734,142682,79923
1682.54034151448,0.256432784853721,128557,71230
1686.36568045817,0.256621533257006,108466,60072
1689.22960634081,0.254708618274208,93901,52235
1692.08917937333,0.260843732716261,80290,44037
1694.94439955575,0.260149668012372,68468,37613
1697.79526688805,0.266352915191427,58156,31495
1700.64178137024,0.266592785966126,49477,26780
