***Scan Config Information***,,,,,,,***Reference Scan Information***,,,,,,,,
Scan Config Name:,FolHerbario,,,,,,Scan Config Name:,Local New Reference,,,,,,,
Scan Config Type:,Slew,Num Section:,1,,,,Scan Config Type:,Slew,Num Section:,1,,,,,
Section Config Type:,Column,,,,,,Section Config Type:,Column,,,,,,,
Start Wavelength (nm):,900,,,,,,Start Wavelength (nm):,900,,,,,,,
End Wavelength (nm):,1700,,,,,,End Wavelength (nm):,1700,,,,,,,
Pattern Width (nm):,7.03,,,,,,Pattern Width (nm):,7.03,,,,,,,
Exposure (ms):,0.635,,,,,,Exposure (ms):,0.635,,,,,,,
Digital Resolution:,228,,,,,,Digital Resolution:,228,,,,,,,
Num Repeats:,20,,,,,,Num Repeats:,20,,,,,,,
PGA Gain:,64,(FixedPGA),,,,,PGA Gain:,64,(AutoPGA),,,,,,
System Temp (C):,40.21,,,,,,System Temp (C):,40.17,,,,,,,
Humidity (%):,49.21,,,,,,Humidity (%):,49.03,,,,,,,
Lamp ADC:,3066,3082,829,851,,,Lamp ADC:,3066,3081,829,851,,,,
Data Date-Time:,2025/04/03T10:27:00,,,,,,Data Date-Time:,2025/04/03T10:26:20,,,,,,,
Total Measurement Time in sec:,6.5061953,,,,,,,,,,,,,,
,,,,,,,,,,,,,,,
***General Information***,,,,,,,***Calibration Coefficients***,,,,,,,,
Model Name:,NIR-S-G1,,,,,,Shift Vector Coefficients:,0.392694521123758,0.0064508848494657,-3.36963000867986E-05,,,,,
Serial Number:,C23R003,(95UB125GC0VC23R003),,,,,Pixel to Wavelength Coefficients:,1737.96619343203,-0.927679554192883,-0.000240514673521399,,,,,
GUI Version:,3.13.1,Revision:,930,,,,Versions (Cal/Ref/Cfg):,1,3,1,,,,,
TIVA Version:,2.4.10,,,,,,***Lamp Usage ***,,,,,,,,
DLPC Version:,2.3.1,,,,,,Total Time(hh:mm:ss):,7min 24sec ,,,,,,,
UUID:,DE:67:0C:88:67:47:5F:21,,,,,,***Device/Error/Activation Status***,,,,,,,,
Main Board Version:,F,,,,,,Device Status:,0x00000001,Activation Status:,Activated,,,,,
Detector Board Version:,C,,,,,,Error status:,0x00000000,Error Code:,0x00000000000000000000000000000000,,,,,
,,,,,,,,,Error Details:,Not found,,,,,
***Scan Data***,,,,,,,,,,,,,,,
Wavelength (nm),Absorbance (AU),Reference Signal (unitless),Sample Signal (unitless)
901.114121469303,0.198207793855544,104360,66119
904.983805426851,0.196551727882617,112735,71698
908.849160120276,0.194955475961673,120593,76978
913.996231967317,0.193059824131199,132744,85105
917.851485044454,0.191943821205062,144042,92586
921.702408857468,0.191397381656276,157682,101481
925.549003406358,0.190558100468636,173934,112157
929.391268691125,0.188411205789304,192480,124731
933.229204711769,0.187162486020526,212771,138277
937.062811468289,0.18560188522459,232838,151863
942.16755273279,0.183676330425719,258409,169290
945.991057873023,0.182343762817005,276239,181527
949.810233749132,0.181099338876616,292753,192931
953.625080361117,0.179562269032472,308714,204171
957.435597708979,0.178459044490989,324800,215356
961.241785792718,0.178002176654948,340403,225939
966.309968826844,0.176345411255524,359807,239731
970.106055294295,0.175171900485989,373264,249370
973.897812497622,0.174348342515883,385574,258083
977.685240436826,0.173669950052584,396452,265779
981.468339111907,0.172741202257166,406270,272944
985.247108522864,0.171889801764335,414251,278852
989.021548669698,0.170902035091882,420497,283701
994.047401121285,0.170329318295236,426857,288372
997.811739651831,0.169658929475438,430461,291256
1001.57174891825,0.16916935948685,434179,294103
1005.32742892055,0.168321840248651,435578,295627
1009.07877965873,0.167578241344355,436795,296961
1012.82580113278,0.166749967467082,438159,298457
1016.56849334271,0.166559157399966,438982,299149
1021.55201521176,0.165360875221541,438750,299817
1025.2846058054,0.164836312657157,438368,299918
1029.01286713492,0.164631505088719,437631,299555
1032.73679920031,0.164377494681813,436794,299157
1036.45640200158,0.163325662710215,435583,299051
1040.17167553873,0.163216093504782,436175,299533
1045.1186391774,0.162524703039451,436621,300317
1048.82381109826,0.161972092999891,436150,300375
1052.524653755,0.16185126918073,436589,300761
1056.22116714761,0.161248834505966,437632,301898
1059.9133512761,0.160606939481771,438753,303119
1063.60120614046,0.160340798029793,439248,303647
1067.28473174071,0.1602816050419,440001,304209
1072.18936479684,0.159695054086781,441802,305867
1075.86278878079,0.159458133313686,443637,307305
1079.53188350063,0.159502003800208,445950,308876
1083.19664895633,0.158570709149785,448049,310996
1086.85708514792,0.158994525911471,450403,312325
1090.51319207538,0.158213384214023,451262,313484
1094.16496973872,0.158537927221526,453014,314466
1099.02727221231,0.158511216014731,455386,316132
1102.66894825936,0.158130173005915,457429,317829
1106.30629504229,0.157804763589119,459409,319444
1109.93931256109,0.157781455182961,461494,320911
1113.56800081577,0.1577352283783,463770,322528
1117.19235980633,0.157857810715085,466103,324059
1120.81238953276,0.157832080276638,468355,325644
1125.63236142381,0.158319244150367,471949,327775
1129.24228953396,0.15831294470423,474698,329689
1132.84788837998,0.158281755511656,476979,331297
1136.44915796188,0.158391188306228,480073,333362
1140.04609827965,0.158894282006057,483141,335104
1143.6387093333,0.158914738143904,486219,337223
1148.42212299398,0.159380355133274,490668,339944
1152.00463243134,0.159612563769875,494639,342512
1155.58281260458,0.160221636708813,498791,344903
1159.1566635137,0.16054280461881,502946,347519
1162.72618515869,0.161059755343323,507805,350459
1166.29137753957,0.161423931763329,512525,353420
1169.85224065631,0.161563852824858,517898,357010
1174.59332373445,0.161903302435614,525363,361873
1178.14408523491,0.162437270792203,531546,365682
1181.69051747124,0.163133679088816,537898,369459
1185.23262044346,0.162972678824584,544632,374223
1188.77039415154,0.163255739775068,551341,378586
1192.30383859551,0.163293356200005,558904,383746
1195.83295377535,0.163188639335557,566836,389286
1200.53170627095,0.162808790892487,577061,396655
1204.0507198345,0.162948776562677,585027,402001
1207.56540413393,0.16243834197236,593070,408007
1211.07575916924,0.162252048288218,601715,414132
1214.58178494043,0.161784318246832,609825,420166
1218.08348144749,0.161510611637227,617240,425543
1222.74567571271,0.161121958272785,627848,433244
1226.23727060348,0.160102766271709,634811,439078
1229.72453623013,0.159797432143859,641044,443701
1233.20747259266,0.159498023036378,648657,449280
1236.68607969106,0.159062869799722,658020,456222
1240.16035752534,0.158622785275249,668928,464255
1243.63030609549,0.158531715330301,678791,471199
1248.25016977818,0.158289128448934,691842,480527
1251.71001673204,0.157982502540215,701258,487411
1255.16553442179,0.157698498970052,710059,493851
1258.61672284741,0.157443430739441,718636,500110
1262.06358200891,0.157311753571757,726602,505807
1265.50611190628,0.157096845041212,733703,511003
1268.94431253953,0.157123871291668,740226,515514
1273.52184563968,0.156948410003542,748193,521273
1276.94994465664,0.157136719296054,754435,525394
1280.37371440948,0.156723848536315,759422,529370
1283.79315489819,0.156766013386162,764094,532575
1287.20826612279,0.156830836611991,768289,535419
1290.61904808326,0.156806126098375,772392,538309
1295.16002295302,0.15671419276711,776908,541571
1298.56070329721,0.156549598028159,779734,543747
1301.95705437726,0.156634342421804,781603,544944
1305.3490761932,0.156290207665604,784058,547089
1308.73676874501,0.156495784247307,786005,548188
1312.1201320327,0.156615802157735,787176,548853
1315.49916605626,0.157034913432067,787669,548667
1319.99781034349,0.15720210062682,788541,549063
1323.36674275077,0.157404847362923,788823,549003
1326.73134589392,0.15779744591709,788593,548347
1330.09161977295,0.157651745841101,787890,548042
1333.44756438786,0.158083311798472,787630,547317
1336.79917973864,0.15865448778929,786825,546039
1340.1464658253,0.159148282924461,784770,543994
1344.60277952999,0.159890045615545,782389,541418
1347.93996400036,0.160787066655331,780136,538745
1351.27281920661,0.161420884169639,776542,535481
1354.60134514873,0.162034387863643,771507,531258
1357.92554182674,0.162567014582903,766661,527274
1361.24540924061,0.163296548164712,763215,524023
1364.56094739037,0.16415097724249,760683,521258
1368.97493051252,0.164887340130814,757989,518532
1372.28036704598,0.165413698297113,756085,516603
1375.58147431533,0.166275299051507,753146,513575
1378.87825232055,0.166626594231754,747785,509507
1382.17070106165,0.167503367302086,742696,505019
1385.45882053862,0.168488237654764,738106,500761
1389.83624543039,0.170733449131593,731639,493814
1393.11426329108,0.171682249223487,723944,487554
1396.38795188764,0.173777647447801,715997,479881
1399.65731122008,0.175684830635464,708126,472526
1402.92234128839,0.177854555522013,701151,465540
1406.18304209259,0.180874257226517,695345,458486
1409.43941363266,0.184291485142823,691943,452667
1413.77450794189,0.18910494747037,689789,446284
1417.02077786567,0.192191752473004,689180,442732
1420.26271852533,0.195333274611681,688407,439048
1423.50032992086,0.198654096985494,688485,435753
1426.73361205227,0.201499137683396,688390,432848
1429.96256491956,0.20403478634941,688105,430150
1433.18718852272,0.206496830894969,688061,427691
1437.47995224942,0.208447145282322,686612,424878
1440.69447423629,0.209620036115296,686210,423484
1443.90466695905,0.210315860663577,685452,422339
1447.11053041767,0.211298270937113,683899,420430
1450.31206461218,0.211606721716325,682062,419003
1453.50926954256,0.211869006664773,680368,417710
1457.76547503888,0.212547650538642,677259,415152
1460.95257835298,0.212568656151423,674626,413518
1464.13535240295,0.21285513082539,671287,411200
1467.31379718879,0.212966366017824,667553,408808
1470.48791271052,0.212963132793192,663389,406261
1473.65769896812,0.212638562334985,658682,403680
1476.8231559616,0.212578383578564,654716,401305
1481.03703087538,0.212287885121334,648567,397802
1484.19238625257,0.211892242423862,643352,394963
1487.34341236563,0.211453723670865,637930,392030
1490.49010921458,0.210988419800272,632385,389039
1493.63247679939,0.210949204097805,627117,385833
1496.77051512009,0.210067855582183,620947,382813
1499.90422417666,0.209381484949558,614418,379387
1504.0757685079,0.20922988342699,606376,374552
1507.19937594819,0.208256873242841,599136,370910
1510.31865412435,0.207556526663728,591902,367023
1513.43360303639,0.207114889383769,584782,362977
1516.5442226843,0.206050691843015,576948,358993
1519.65051306809,0.205354748551695,569614,354998
1522.75247418776,0.20473248859769,561960,350730
1526.88168793646,0.204149582557689,551692,344784
1529.97354743984,0.203987452393292,543890,340035
1533.0610776791,0.203440071844946,535366,335128
1536.14427865423,0.203013727011028,527035,330237
1539.22315036524,0.202702599370429,518572,325167
1542.29769281213,0.202294024512545,510102,320157
1546.39034833045,0.201767020900696,498546,313284
1549.45478916105,0.201478926641719,489755,307964
1552.51490072752,0.201334282109212,481031,302579
1555.57068302988,0.201038540381629,472185,297217
1558.6221360681,0.20040292095309,462982,291851
1561.66925984221,0.200076150636999,454058,286441
1564.71205435219,0.200160905681497,444889,280602
1568.76237928798,0.199954971562504,432650,273012
1571.79507218167,0.199948981223358,423570,267286
1574.82343581124,0.199669536047268,414166,261520
1577.84747017669,0.199291684927979,404630,255721
1580.86717527801,0.199688017025666,395877,249961
1583.88255111521,0.199649217680817,386606,244129
1586.89359768829,0.198925922624817,377457,238749
1590.90159204153,0.198174054690977,365335,231482
1593.90253699832,0.197325834936327,356121,226085
1596.89915269099,0.196621601649119,347195,220776
1599.89143911953,0.196908375292384,338689,215225
1602.87939628395,0.196033578292554,329519,209820
1605.86302418424,0.195315942593681,320593,204474
1609.83446030711,0.194028442984246,308473,197328
1612.80798659112,0.193977275740681,300229,192077
1615.777183611,0.193270755214324,291130,186559
1618.74205136676,0.193247931584906,282590,181096
1621.7025898584,0.192115078566767,273770,175902
1624.65879908592,0.192468805281215,265412,170393
1627.61067904931,0.192248265261092,256987,165068
1631.53978458964,0.191928104196658,245945,158092
1634.48156293674,0.191269423036025,237776,153073
1637.41901201972,0.191133326579353,229785,147975
1640.35213183857,0.1903827121602,221783,143069
1643.28092239331,0.190562858037289,214048,138022
1646.20538368392,0.190573718240369,206420,133100
1649.1255157104,0.190938178705407,198997,128206
1653.01229066819,0.190029971846229,188995,122017
1655.92232107839,0.191745176501784,181851,116942
1658.82802222446,0.191127647890598,174243,112209
1661.72939410641,0.19066269019338,166372,107255
1664.62643672424,0.192354646548971,158494,101779
1667.51915007795,0.192371680255181,149865,96234
1671.36936680536,0.193835979578815,137816,88199
1674.25197854278,0.19414121594576,127402,81477
1677.13026101607,0.194637195264333,116267,74271
1680.00421422524,0.194739450985682,104294,66607
1682.87383817029,0.196646779554693,92184,58615
1685.73913285121,0.196571485392286,80032,50897
1688.60009826801,0.198022347010792,68617,43492
1692.40798441288,0.197625867067352,55172,35002
1695.25884821339,0.199659698053937,46827,29569
1698.10538274978,0.20011150037884,39428,24871
1700.94758802205,0.203222226755062,33248,20823
