***Scan Config Information***,,,,,,,***Reference Scan Information***,,,,,,,,
Scan Config Name:,FolHerbario,,,,,,Scan Config Name:,Local New Reference,,,,,,,
Scan Config Type:,Slew,Num Section:,1,,,,Scan Config Type:,Slew,Num Section:,1,,,,,
Section Config Type:,Column,,,,,,Section Config Type:,Column,,,,,,,
Start Wavelength (nm):,900,,,,,,Start Wavelength (nm):,900,,,,,,,
End Wavelength (nm):,1700,,,,,,End Wavelength (nm):,1700,,,,,,,
Pattern Width (nm):,7.03,,,,,,Pattern Width (nm):,7.03,,,,,,,
Exposure (ms):,0.635,,,,,,Exposure (ms):,0.635,,,,,,,
Digital Resolution:,228,,,,,,Digital Resolution:,228,,,,,,,
Num Repeats:,20,,,,,,Num Repeats:,20,,,,,,,
PGA Gain:,64,(FixedPGA),,,,,PGA Gain:,64,(AutoPGA),,,,,,
System Temp (C):,37.61,,,,,,System Temp (C):,36.79,,,,,,,
Humidity (%):,48.07,,,,,,Humidity (%):,49.99,,,,,,,
Lamp ADC:,3077,3079,831,849,,,Lamp ADC:,3077,3079,831,850,,,,
Data Date-Time:,2025/04/03T10:21:35,,,,,,Data Date-Time:,2025/04/03T10:14:26,,,,,,,
Total Measurement Time in sec:,6.4871589,,,,,,,,,,,,,,
,,,,,,,,,,,,,,,
***General Information***,,,,,,,***Calibration Coefficients***,,,,,,,,
Model Name:,NIR-S-G1,,,,,,Shift Vector Coefficients:,-5.74589567087503,0.0468271937173058,-9.53581739805986E-05,,,,,
Serial Number:,C23R002,(95UB125GC0VC23R002),,,,,Pixel to Wavelength Coefficients:,1756.1983651918,-0.919335509971685,-0.000241825006214287,,,,,
GUI Version:,3.13.1,Revision:,930,,,,Versions (Cal/Ref/Cfg):,1,3,1,,,,,
TIVA Version:,2.4.10,,,,,,***Lamp Usage ***,,,,,,,,
DLPC Version:,2.3.1,,,,,,Total Time(hh:mm:ss):,5min 1sec ,,,,,,,
UUID:,DE:67:0C:88:67:76:74:21,,,,,,***Device/Error/Activation Status***,,,,,,,,
Main Board Version:,F,,,,,,Device Status:,0x00000001,Activation Status:,Activated,,,,,
Detector Board Version:,C,,,,,,Error status:,0x00000000,Error Code:,0x00000000000000000000000000000000,,,,,
,,,,,,,,,Error Details:,Not found,,,,,
***Scan Data***,,,,,,,,,,,,,,,
Wavelength (nm),Absorbance (AU),Reference Signal (unitless),Sample Signal (unitless)
901.701099874012,0.402958502648541,90826,35913
905.577788882674,0.394262493101202,98780,39848
909.450125041225,0.389916274042903,106612,43440
913.318108349663,0.382115632445603,115646,47975
917.18173880799,0.380256948195466,127331,53049
921.041016416205,0.371825495983311,140620,59734
926.179948793651,0.365052291595679,163790,70670
930.029069751605,0.362788877720992,185234,80340
933.873837859447,0.355354429095786,207366,91492
937.714253117177,0.350428408336026,228185,101826
941.550315524795,0.348025902470212,245947,110361
945.382025082302,0.340818297320797,260736,118955
949.209381789697,0.336276723958921,273628,126149
954.305752966049,0.330577561076961,288386,134709
958.122953023182,0.326422288183845,298513,140780
961.935800230204,0.322130797538195,307665,146537
965.744294587114,0.317350267423585,316690,152505
969.548436093912,0.313979366279164,325494,157966
973.348224750598,0.309154907651334,333758,163786
977.143660557173,0.306129422359394,342237,169121
982.197470532431,0.299998806577998,352933,176886
985.982749688744,0.297331522274352,360483,181783
989.763675994946,0.294102383165759,367926,186921
993.540249451036,0.289701461277251,375358,192639
997.312470057013,0.286641937196523,382014,197441
1001.08033781288,0.283190823869077,388753,202527
1004.84385271863,0.279484106882287,394731,207404
1009.8551014928,0.275159573547591,402761,213741
1013.60845974829,0.271706818351537,407784,218134
1017.35746515367,0.269064762372689,412587,222050
1021.10211770894,0.265591221906297,416854,226148
1024.8424174141,0.262362158957542,420232,229682
1028.57836426914,0.259761087008572,423337,232769
1032.30995827408,0.256157854310319,425629,235979
1037.27864584715,0.252630679152021,428185,239332
1041.00008320182,0.249853021940442,430214,242009
1044.71716770638,0.247124066796502,432174,244644
1048.42989936083,0.243902559521205,433590,247273
1052.13827816517,0.241888573577457,435333,249421
1055.8423041194,0.238344990078034,436963,252406
1059.54197722351,0.235287303031182,438164,254888
1064.46810359549,0.232807301949623,439079,256883
1068.15762004934,0.230694938754179,438095,257557
1071.84278365308,0.228313660057036,434879,257072
1075.52359440671,0.226641003452406,431903,256298
1079.20005231022,0.224544076062406,429826,256300
1082.87215736363,0.222631867567106,429255,257089
1086.53990956692,0.220670171114616,430058,258736
1091.42347473781,0.218043598917595,431620,261251
1095.08107029084,0.215792886277305,434037,264079
1098.73431299376,0.214791646068835,436914,266443
1102.38320284657,0.213299996716965,440057,269283
1106.02773984926,0.211070685272875,444008,273099
1109.66792400185,0.209236835566239,447423,276364
1113.30375530432,0.207861067830948,452247,280230
1118.14475927411,0.206012038586814,458600,285379
1121.77043392632,0.2046455732979,463503,289339
1125.39175572842,0.203170323633414,468785,293632
1129.00872468041,0.20228718271371,474475,297801
1132.62134078229,0.20066881042606,480204,302522
1136.22960403405,0.200038805206764,485810,306498
1139.83351443571,0.198714541089679,491366,310950
1144.6319572044,0.197899835919255,499325,316580
1148.22571095579,0.197022394516943,504944,320790
1151.81511185707,0.196335375580683,510308,324711
1155.40015990824,0.1955908070752,516042,328923
1158.9808551093,0.195261539235846,521848,332876
1162.55719746024,0.19460582849358,527765,337159
1166.12918696107,0.193756379509654,533050,341202
1170.88506852868,0.192921542803617,540989,346950
1174.44690137925,0.19301615551463,547311,350928
1178.00438137971,0.19227151803623,552939,355145
1181.55750853005,0.191684516980918,558738,359355
1185.10628283029,0.191301559152579,565160,363806
1188.65070428041,0.190544884277134,571564,368570
1192.19077288043,0.18986355756055,578388,373556
1196.90409324693,0.189306804071982,587423,379878
1200.43400519669,0.188385037140341,593879,384869
1203.95956429632,0.1877938594279,600833,389906
1207.48077054585,0.187206065994843,608238,395246
1210.99762394527,0.18640323933966,615205,400513
1214.51012449457,0.185865913648287,622181,405556
1218.01827219376,0.184778326690723,629545,411385
1222.68903135918,0.183452559153513,638864,418751
1226.18702240811,0.182656507615924,645389,423804
1229.68066060693,0.181788835357989,652282,429187
1233.16994595564,0.181228913861769,660321,435037
1236.65487845423,0.180116252632895,668233,441379
1240.13545810271,0.179164498382252,677878,448732
1243.61168490109,0.1785916893429,687957,456005
1248.23988286541,0.177691604447958,700352,465184
1251.70595301352,0.177281769118924,707946,470672
1255.16767031152,0.176333267677977,715324,476617
1258.6250347594,0.176243572408032,722937,481789
1262.07804635718,0.175676377858038,729789,486991
1265.52670510484,0.174807153634194,735697,491917
1268.97101100239,0.174663525475951,741902,496230
1273.55664776562,0.173813562528121,750328,502849
1276.99079701291,0.173405392799481,755771,506973
1280.42059341009,0.172774058511233,761016,511234
1283.84603695715,0.172208707821862,766371,515502
1287.26712765411,0.17197428677537,771831,519455
1290.68386550095,0.171598560116499,776986,523377
1294.09625049768,0.17116547532904,781828,527164
1298.63932605982,0.170782204467646,788076,531846
1302.04155440629,0.170576589341714,792592,535147
1305.43942990264,0.170066930743097,796596,538482
1308.83295254889,0.170301197914535,800812,541040
1312.22212234502,0.169833364271261,804863,544363
1315.60693929105,0.169662825265145,808437,546995
1320.11325745224,0.169479024396924,812490,549970
1323.487917748,0.169351526140619,814362,551399
1326.85822519365,0.169728460969836,817211,552848
1330.22417978919,0.169863383791578,819779,554413
1333.58578153461,0.169791967415274,821164,555441
1336.94303042993,0.170473575540498,822707,555612
1340.29592647513,0.170390760849703,823847,556488
1344.75968343522,0.171220568717209,824991,556197
1348.10242283016,0.172100793180972,824691,554869
1351.44080937499,0.172458378539165,823502,553613
1354.77484306971,0.173112796939018,821450,551402
1358.10452391432,0.173898753455878,819668,549211
1361.42985190881,0.174269742025059,817986,547616
1364.75082705319,0.174677484988278,817171,546557
1369.17202281219,0.175501022207301,818018,546087
1372.48284130632,0.175732842852337,817563,545492
1375.78930695032,0.176488960384115,815560,543209
1379.09141974422,0.177343506115418,812190,539901
1382.38917968801,0.178356736474164,808784,536384
1385.68258678168,0.179407816567387,805842,533141
1388.97164102524,0.1811443938168,802656,528914
1393.35027558315,0.183690652159161,797127,522200
1396.62917317645,0.186604186748704,793581,516401
1399.90371791964,0.189517605285966,790955,511251
1403.17390981272,0.193072319000158,789800,506343
1406.43974885568,0.197176869721965,790477,502010
1409.70123504853,0.201770210248112,791342,497272
1412.95836839128,0.206118625157403,791511,492423
1417.29444174809,0.212261644263416,791407,485443
1420.54141844057,0.217002261885278,791544,480256
1423.78404228294,0.22082245937129,791519,476035
1427.0223132752,0.224392806042308,791047,471856
1430.25623141734,0.227783221880905,790076,467612
1433.48579670937,0.230416918461517,789772,464606
1436.71100915129,0.232492516598532,788604,461707
1441.00452130702,0.234263953288101,786900,458834
1444.21957709868,0.235255669656707,785115,456749
1447.43028004022,0.23629170875671,783265,454587
1450.63663013166,0.236544248612095,781188,453118
1453.83862737298,0.236924036011193,778517,451174
1457.0362717642,0.237231108666992,775476,449094
1460.2295633053,0.237220733030388,772137,447171
1464.48051425993,0.237241321062347,767437,444428
1467.66364915076,0.237121697849172,763445,442238
1470.84243119149,0.236806247866459,759149,440069
1474.01686038211,0.236045627869881,754900,438373
1477.18693672261,0.235503709043954,749965,436051
1480.35266021301,0.234776504419283,744689,433709
1483.51403085329,0.233812103559807,738958,431328
1487.72242060682,0.232999807344235,731864,427987
1490.87363459684,0.231924472977149,725776,425479
1494.02049573675,0.230873632474916,719419,422774
1497.16300402654,0.230252161745389,713437,419859
1500.30115946623,0.229234889976819,707350,417253
1503.4349620558,0.228157774922379,700501,414239
1506.56441179526,0.227339838508359,692953,410548
1510.7302403477,0.225872599582352,683512,406325
1513.8495334369,0.224939276176193,676309,402908
1516.96447367598,0.223751257947957,666803,398333
1520.07506106496,0.223224693054657,659456,394422
1523.18129560382,0.222083227380862,651525,390704
1526.28317729258,0.221508770880041,643566,386442
1529.38070613122,0.220928629019151,634950,381778
1533.50397348256,0.220010074800434,623191,375501
1536.59134567094,0.219402462390818,614421,370735
1539.67436500921,0.218931109331565,605770,365912
1542.75303149736,0.21836094617378,596282,360654
1545.82734513541,0.2182070907759,587298,355346
1548.89730592334,0.217690176896815,577771,349998
1551.96291386116,0.217051135895532,567811,344471
1556.04362001141,0.216901817990778,554651,336603
1559.09907129897,0.216497944459836,544760,330908
1562.15016973641,0.216487179046545,534670,324787
1565.19691532375,0.216008423931141,524522,318974
1568.23930806097,0.216072621518447,514059,312565
1571.27734794808,0.215762825239273,504157,306763
1574.31103498508,0.21540644346141,494027,300846
1578.34917993424,0.215820950384677,480552,292361
1581.37271032098,0.215065046559233,470229,286579
1584.39188785761,0.214817539691088,460225,280642
1587.40671254412,0.214495235568554,449845,274516
1590.41718438052,0.21467076420333,439617,268166
1593.42330336681,0.213706303686612,428821,262162
1596.42506950299,0.212844811089511,418800,256544
1600.42065325106,0.21257758022279,405259,248402
1603.41226273698,0.212011880378387,395032,242449
1606.39951937278,0.210961413049549,384912,236810
1609.38242315848,0.210676387510427,375071,230907
1612.36097409406,0.210264656235297,365378,225153
1615.33517217953,0.209552625994181,355428,219381
1618.30501741489,0.209644365904417,345939,213479
1622.25803996186,0.209317584132579,333272,205817
1625.21772854696,0.208625965890839,323491,200095
1628.17306428194,0.20822753635007,313999,194402
1631.12404716682,0.208508431044645,304857,188620
1634.07067720158,0.208829453802877,295808,182886
1637.01295438623,0.20845103570177,286444,177251
1639.95087872077,0.208718904273667,276925,171255
1643.86134006665,0.208727551561392,264298,163443
1646.78910775092,0.20887210528395,255088,157695
1649.71252258509,0.209755412734373,245869,151687
1652.63158456914,0.210230887321957,236782,145921
1655.54629370308,0.2112146515437,228039,140215
1658.45664998691,0.211484890354071,218931,134531
1661.36265342063,0.211662011157908,209314,128569
1665.23055356542,0.212273372188135,195981,120210
1668.12640034887,0.21302628311489,184889,113210
1671.01789428222,0.213188275688062,173306,106078
1673.90503536545,0.211791248948952,159464,97920
1676.78782359857,0.210785426247478,144617,89009
1679.66625898158,0.211698577895901,129418,79487
1682.54034151448,0.211031447553399,114034,70146
1686.36568045817,0.21139722949345,94386,58011
1689.22960634081,0.210800250353425,80738,49691
1692.08917937333,0.210839926628158,68672,42261
1694.94439955575,0.210049756181053,57975,35743
1697.79526688805,0.213936582993412,49387,30177
1700.64178137024,0.21409811746865,42151,25746
