***Scan Config Information***,,,,,,,***Reference Scan Information***,,,,,,,,
Scan Config Name:,FolHerbario,,,,,,Scan Config Name:,Local New Reference,,,,,,,
Scan Config Type:,Slew,Num Section:,1,,,,Scan Config Type:,Slew,Num Section:,1,,,,,
Section Config Type:,Column,,,,,,Section Config Type:,Column,,,,,,,
Start Wavelength (nm):,900,,,,,,Start Wavelength (nm):,900,,,,,,,
End Wavelength (nm):,1700,,,,,,End Wavelength (nm):,1700,,,,,,,
Pattern Width (nm):,7.03,,,,,,Pattern Width (nm):,7.03,,,,,,,
Exposure (ms):,0.635,,,,,,Exposure (ms):,0.635,,,,,,,
Digital Resolution:,228,,,,,,Digital Resolution:,228,,,,,,,
Num Repeats:,20,,,,,,Num Repeats:,20,,,,,,,
PGA Gain:,64,(FixedPGA),,,,,PGA Gain:,64,(AutoPGA),,,,,,
System Temp (C):,40.75,,,,,,System Temp (C):,40.38,,,,,,,
Humidity (%):,40.75,,,,,,Humidity (%):,40.97,,,,,,,
Lamp ADC:,3069,3082,845,842,,,Lamp ADC:,3069,3082,845,842,,,,
Data Date-Time:,2025/04/03T12:03:53,,,,,,Data Date-Time:,2025/04/03T12:01:27,,,,,,,
Total Measurement Time in sec:,6.4865634,,,,,,,,,,,,,,
,,,,,,,,,,,,,,,
***General Information***,,,,,,,***Calibration Coefficients***,,,,,,,,
Model Name:,NIR-S-G1,,,,,,Shift Vector Coefficients:,-4.78706677830951,0.0420606707536571,-9.21439965724389E-05,,,,,
Serial Number:,C23R001,(95UB125GC0VC23R001),,,,,Pixel to Wavelength Coefficients:,1777.69850932213,-0.910890781979712,-0.000240535926235214,,,,,
GUI Version:,3.13.1,Revision:,930,,,,Versions (Cal/Ref/Cfg):,1,3,1,,,,,
TIVA Version:,2.4.10,,,,,,***Lamp Usage ***,,,,,,,,
DLPC Version:,2.3.1,,,,,,Total Time(hh:mm:ss):,12min 55sec ,,,,,,,
UUID:,DE:67:0C:88:67:3E:75:21,,,,,,***Device/Error/Activation Status***,,,,,,,,
Main Board Version:,F,,,,,,Device Status:,0x00000001,Activation Status:,Activated,,,,,
Detector Board Version:,C,,,,,,Error status:,0x00000000,Error Code:,0x00000000000000000000000000000000,,,,,
,,,,,,,,,Error Details:,Not found,,,,,
***Scan Data***,,,,,,,,,,,,,,,
Wavelength (nm),Reflectance (unitless)
900.868887283122,0.364479349008847
904.747472781646,0.372798228035017
909.912185107076,0.381240447783886
913.780668096698,0.384724762828726
917.644821439648,0.39281150483763
921.504645135925,0.398346225987177
925.36013918553,0.401670116258587
929.211303588463,0.408489593862326
933.058138344724,0.413264444068972
938.180516347137,0.421261042936283
942.017248594496,0.426872415546891
945.849651195182,0.431565339747278
949.677724149196,0.438232263230786
953.501467456539,0.443835513832018
957.320881117208,0.448285526865049
961.135965131206,0.45369277187459
966.216008810601,0.46091650018468
970.020990315697,0.466498280699753
973.821642174121,0.471559600901448
977.617964385872,0.477005166426696
981.409956950951,0.482008079775473
985.197619869358,0.488046335852777
988.980953141092,0.492343050953353
994.01866249747,0.499315494169749
997.791893260303,0.504661964782919
1001.56079437646,0.509642616887074
1005.32536584595,0.514942715595489
1009.08560766877,0.519603210143028
1012.84151984491,0.524080527233357
1016.59310237438,0.529217226568242
1021.58847740774,0.53580261477257
1025.32995742831,0.540785345304904
1029.06710780221,0.544708541542079
1032.79992852944,0.549622014647695
1036.52841960999,0.55412720581489
1040.25258104387,0.558582777611959
1043.97241283108,0.562323502688898
1047.68791497161,0.567567512207911
1052.63518281973,0.572752685612016
1056.34058245136,0.576991553409608
1060.04165243632,0.581577947311859
1063.73839277461,0.58598538485136
1067.43080346623,0.589836219605048
1071.11888451118,0.593049523213625
1074.80263590945,0.596216457813935
1079.70756943455,0.600714988860681
1083.38121832392,0.604436217697973
1087.05053756662,0.607168781394268
1090.71552716264,0.610799305276335
1094.376187112,0.613133958956378
1098.03251741468,0.617090663837277
1101.68451807069,0.620042586353958
1106.54711727277,0.62415141586517
1110.18901541988,0.625845582959596
1113.82658392031,0.628103856749865
1117.45982277408,0.631322976667481
1121.08873198117,0.632930522618528
1124.71331154159,0.63408413526325
1128.33356145534,0.637329618668947
1133.1538263344,0.63907377435775
1136.76397373924,0.640590719106679
1140.36979149742,0.642242448195161
1143.97127960892,0.643999259524939
1147.56843807374,0.644971434813689
1151.1612668919,0.646913584954585
1154.74976606338,0.647256196968433
1159.52769661943,0.647784899347781
1163.10609328201,0.649026866341354
1166.68016029792,0.649658410026911
1170.24989766716,0.650327382545628
1173.81530538972,0.650071681109693
1177.37638346562,0.651331059508113
1180.93313189484,0.652066042685774
1185.66872812787,0.652775233070482
1189.21537404818,0.653606689076341
1192.75769032183,0.654448645055714
1196.29567694881,0.65525348247113
1199.82933392911,0.656954239174216
1203.35866126274,0.657666974848327
1206.8836589497,0.658794936337235
1211.57692085971,0.661164573264689
1215.09181603776,0.662802335144114
1218.60238156915,0.664903419343053
1222.10861745386,0.666836607868067
1225.6105236919,0.668833771137487
1229.10810028326,0.671441373258238
1232.60134722796,0.673185658014837
1236.09026452598,0.675174017435828
1240.73541925074,0.676790122723262
1244.21423403986,0.677881707327764
1247.68871918231,0.679879530196518
1251.15887467809,0.681063047716604
1254.62470052719,0.681813624324257
1258.08619672962,0.682701292713683
1261.54336328538,0.683780096264733
1266.14618368713,0.684651045234754
1269.59324773399,0.686174619497608
1273.03598213417,0.686112622963383
1276.47438688769,0.686858798300377
1279.90846199453,0.687756612529889
1283.3382074547,0.68869341559887
1286.76362326819,0.689414916142742
1291.32410934692,0.690611575993842
1294.73942265151,0.691343378654967
1298.15040630944,0.691823043147644
1301.55706032069,0.692152397170457
1304.95938468526,0.692807479841918
1308.35737940317,0.693732071159092
1311.7510444744,0.693532361133077
1316.26919623011,0.69419413573148
1319.65275879245,0.694327415167476
1323.03199170811,0.693942752193009
1326.40689497709,0.693434506653916
1329.77746859941,0.693093145046477
1333.14371257505,0.692405740637194
1336.50562690402,0.691601544394107
1340.98144433671,0.690178805174625
1344.33325615678,0.688504160481949
1347.68073833018,0.686283452036717
1351.0238908569,0.684888047204682
1354.36271373695,0.683050405317193
1357.69720697033,0.681237046408932
1361.02737055704,0.67952549798578
1365.46085366672,0.677209144994727
1368.78091474452,0.675289322639146
1372.09664617566,0.674089395381293
1375.40804796012,0.672528541603559
1378.71512009791,0.671161375061588
1382.01786258902,0.66892903598048
1385.31627543347,0.66625102517759
1388.61035863124,0.663055687422015
1392.99573455567,0.657591072996631
1396.27971524454,0.653040850754874
1399.55936628673,0.647064544626864
1402.83468768226,0.640083915397576
1406.10567943111,0.631630457131108
1409.3723415333,0.62313262829857
1412.6346739888,0.61366316074323
1416.97771559022,0.602471095303783
1420.22994553682,0.593812872032579
1423.47784583676,0.58606995019031
1426.72141649002,0.580118463313914
1429.96065749661,0.573935496443535
1433.19556885653,0.570166112308698
1436.42615056978,0.567219936106513
1440.72685784817,0.56459420275699
1443.94733705251,0.563749879559124
1447.16348661018,0.562620364607735
1450.37530652118,0.562228308455272
1453.58279678551,0.561464443252684
1456.78595740317,0.561887329099844
1459.98478837415,0.561729397756116
1464.24316132953,0.561424595949634
1467.43188979161,0.56175912856267
1470.61628860702,0.562285030228222
1473.79635777575,0.56262059855735
1476.97209729782,0.563917950646027
1480.14350717321,0.564647953665259
1483.31058740193,0.565165383587393
1487.52662603429,0.566455272174703
1490.68360375411,0.567278710549952
1493.83625182725,0.568068781531944
1496.98457025372,0.569267773648244
1500.12855903353,0.570573094262419
1503.26821816666,0.57271649774347
1506.40354765311,0.57424648815052
1510.57725196245,0.576610475152316
1513.70247894001,0.578844569326308
1516.82337627089,0.580167540286795
1519.9399439551,0.582637732192505
1523.05218199264,0.583950475351044
1526.16009038351,0.585047614291215
1529.2636691277,0.587241223316833
1532.36291822522,0.588424273413776
1536.48851534932,0.589899020235998
1539.57766193794,0.590945427683839
1542.66247887988,0.591982986358047
1545.74296617516,0.592533128229183
1548.81912382376,0.593765299128562
1551.89095182569,0.594684991270906
1554.95845018095,0.595509287756241
1559.04171298203,0.596099034369136
1562.09910882838,0.596922443116973
1565.15217502807,0.59701453154155
1568.20091158108,0.598389483780922
1571.24531848742,0.598490273766804
1574.28539574709,0.599107800216915
1577.32114336008,0.599903326183499
1581.36207183814,0.600610661212911
1584.38771694224,0.601623557333837
1587.40903239966,0.601908994192531
1590.42601821041,0.604060226252548
1593.43867437448,0.605197997715754
1596.44700089189,0.606624740616695
1599.45099776262,0.608645696688902
1603.44959191766,0.610944651620645
1606.44348627949,0.611747223181083
1609.43305099465,0.613559288047143
1612.41828606314,0.615019545738054
1615.39919148495,0.61440583180915
1618.37576726009,0.615577090040391
1621.34801338856,0.616665146275456
1625.30427322059,0.618066897029919
1628.26641684016,0.61778452325277
1631.22423081305,0.619134922867939
1634.17771513927,0.618594260930709
1637.12686981883,0.618539904871038
1640.0716948517,0.618407769808856
1643.01219023791,0.618327801507196
1646.92611574692,0.616106382978723
1649.85650862422,0.61614660904377
1652.78257185485,0.615189567280986
1655.70430543881,0.613479226629959
1658.6217093761,0.612233493287979
1661.53478366672,0.610351341140914
1664.44352831066,0.609112238344278
1668.31511949665,0.605775918832945
1671.21376163169,0.604767781620577
1674.10807412006,0.602247819801334
1676.99805696176,0.600008922397448
1679.88371015678,0.59676058404872
1682.76503370514,0.593485554393448
1685.64202760682,0.593545106438714
1688.51469186182,0.591156257749123
1692.33817586257,0.588554020237189
1695.20073760867,0.584052217726544
1698.05896970811,0.581310028037941
1700.91287216087,0.583474243876928
