***Scan Config Information***,,,,,,,***Reference Scan Information***,,,,,,,,
Scan Config Name:,FolHerbario,,,,,,Scan Config Name:,Local New Reference,,,,,,,
Scan Config Type:,Slew,Num Section:,1,,,,Scan Config Type:,Slew,Num Section:,1,,,,,
Section Config Type:,Column,,,,,,Section Config Type:,Column,,,,,,,
Start Wavelength (nm):,900,,,,,,Start Wavelength (nm):,900,,,,,,,
End Wavelength (nm):,1700,,,,,,End Wavelength (nm):,1700,,,,,,,
Pattern Width (nm):,7.03,,,,,,Pattern Width (nm):,7.03,,,,,,,
Exposure (ms):,0.635,,,,,,Exposure (ms):,0.635,,,,,,,
Digital Resolution:,228,,,,,,Digital Resolution:,228,,,,,,,
Num Repeats:,20,,,,,,Num Repeats:,20,,,,,,,
PGA Gain:,64,(FixedPGA),,,,,PGA Gain:,64,(AutoPGA),,,,,,
System Temp (C):,38.83,,,,,,System Temp (C):,38.57,,,,,,,
Humidity (%):,45.64,,,,,,Humidity (%):,46.53,,,,,,,
Lamp ADC:,3077,3079,831,849,,,Lamp ADC:,3077,3078,831,849,,,,
Data Date-Time:,2025/04/03T10:37:54,,,,,,Data Date-Time:,2025/04/03T10:33:28,,,,,,,
Total Measurement Time in sec:,6.4600125,,,,,,,,,,,,,,
,,,,,,,,,,,,,,,
***General Information***,,,,,,,***Calibration Coefficients***,,,,,,,,
Model Name:,NIR-S-G1,,,,,,Shift Vector Coefficients:,-5.74589567087503,0.0468271937173058,-9.53581739805986E-05,,,,,
Serial Number:,C23R002,(95UB125GC0VC23R002),,,,,Pixel to Wavelength Coefficients:,1756.1983651918,-0.919335509971685,-0.000241825006214287,,,,,
GUI Version:,3.13.1,Revision:,930,,,,Versions (Cal/Ref/Cfg):,1,3,1,,,,,
TIVA Version:,2.4.10,,,,,,***Lamp Usage ***,,,,,,,,
DLPC Version:,2.3.1,,,,,,Total Time(hh:mm:ss):,6min 21sec ,,,,,,,
UUID:,DE:67:0C:88:67:76:74:21,,,,,,***Device/Error/Activation Status***,,,,,,,,
Main Board Version:,F,,,,,,Device Status:,0x00000001,Activation Status:,Activated,,,,,
Detector Board Version:,C,,,,,,Error status:,0x00000000,Error Code:,0x00000000000000000000000000000000,,,,,
,,,,,,,,,Error Details:,Not found,,,,,
***Scan Data***,,,,,,,,,,,,,,,
Wavelength (nm),Absorbance (AU),Reference Signal (unitless),Sample Signal (unitless)
901.701099874012,0.365461279267246,91066,39255
905.577788882674,0.354013742552605,98867,43756
909.450125041225,0.349248981370414,106417,47617
913.318108349663,0.343998377368312,115529,52323
917.18173880799,0.338274218410183,126777,58179
921.041016416205,0.333606457908497,140163,65017
926.179948793651,0.327070148361747,162739,76634
930.029069751605,0.322233725247972,183586,87419
933.873837859447,0.318055749614453,206114,99095
937.714253117177,0.313049705859366,227315,110555
941.550315524795,0.308199309980414,245168,120577
945.382025082302,0.304261953937313,260310,129190
949.209381789697,0.299308018332181,273354,137220
954.305752966049,0.293410336871606,288366,146735
958.122953023182,0.289479200617365,298625,153337
961.935800230204,0.285662050770705,307944,159518
965.744294587114,0.282122968979804,317058,165583
969.548436093912,0.278030583443605,325712,171713
973.348224750598,0.274998815201459,334036,177335
977.143660557173,0.271644830120747,342169,183061
982.197470532431,0.267494781316734,353089,190717
985.982749688744,0.264531804441841,360717,196171
989.763675994946,0.261863885433733,368329,201545
993.540249451036,0.258380937326008,375329,207029
997.312470057013,0.255326860269785,381943,212164
1001.08033781288,0.253424460581676,389368,217238
1004.84385271863,0.250536351870261,395492,222127
1009.8551014928,0.246756380324918,403391,228544
1013.60845974829,0.244401115446473,408628,232770
1017.35746515367,0.241959521245587,413133,236663
1021.10211770894,0.239579266339384,417118,240259
1024.8424174141,0.237824125433,420770,243344
1028.57836426914,0.235689454816655,423886,246354
1032.30995827408,0.233819221757354,426435,248905
1037.27864584715,0.231388139234626,428692,251627
1041.00008320182,0.229382037909884,430922,254107
1044.71716770638,0.228065808376661,433138,256189
1048.42989936083,0.226302356225881,434636,258121
1052.13827816517,0.224361044684914,435963,260069
1055.8423041194,0.223246975286168,437620,261728
1059.54197722351,0.22159579150436,439389,263787
1064.46810359549,0.219646017367425,439671,265144
1068.15762004934,0.217932415179663,438374,265407
1071.84278365308,0.216862183809811,435163,264113
1075.52359440671,0.215337077276631,432260,263274
1079.20005231022,0.214703345519225,430446,262552
1082.87215736363,0.212998115128642,429481,262994
1086.53990956692,0.212498306325996,430504,263924
1091.42347473781,0.211009800855463,431775,265612
1095.08107029084,0.209035661599461,434351,268414
1098.73431299376,0.208808980765499,436662,269983
1102.38320284657,0.207514384734674,440258,273019
1106.02773984926,0.207205811560256,444027,275552
1109.66792400185,0.20619046276803,447887,278598
1113.30375530432,0.205665491278906,452603,281872
1118.14475927411,0.204900150722311,458995,286357
1121.77043392632,0.203587873454709,463630,290124
1125.39175572842,0.203340319134439,469042,293678
1129.00872468041,0.202901319528052,474588,297451
1132.62134078229,0.202269066226517,480170,301388
1136.22960403405,0.202081897466454,486193,305300
1139.83351443571,0.201766226272461,491532,308877
1144.6319572044,0.201036359793702,499160,314198
1148.22571095579,0.201171267102788,505257,317937
1151.81511185707,0.20096317428978,510630,321472
1155.40015990824,0.200599000601418,516098,325187
1158.9808551093,0.200195372158819,521850,329117
1162.55719746024,0.200168395742621,528074,333063
1166.12918696107,0.200179724249937,533198,336286
1170.88506852868,0.199994722961462,541030,341371
1174.44690137925,0.199429616570523,546816,345471
1178.00438137971,0.199581913555961,552795,349126
1181.55750853005,0.199889993422445,558958,352768
1185.10628283029,0.199420022662925,565343,357184
1188.65070428041,0.199095484757481,571769,361514
1192.19077288043,0.198748114990773,578210,365879
1196.90409324693,0.198335354275733,587350,372016
1200.43400519669,0.197523089319337,593864,376846
1203.95956429632,0.197198049867565,600920,381609
1207.48077054585,0.196785744905948,608005,386475
1210.99762394527,0.196509573887998,615294,391357
1214.51012449457,0.195617898451477,622368,396670
1218.01827219376,0.194438748377104,629238,402139
1222.68903135918,0.193678086242322,638610,408844
1226.18702240811,0.192642671736237,645091,413979
1229.68066060693,0.19227984964009,652060,418801
1233.16994595564,0.191549276245408,659743,424449
1236.65487845423,0.1911000682718,667629,429967
1240.13545810271,0.190969108123064,677547,436486
1243.61168490109,0.189929083596394,687505,443963
1248.23988286541,0.189741741859014,700152,452325
1251.70595301352,0.188897683260282,707807,458160
1255.16767031152,0.189139347039624,715010,462565
1258.6250347594,0.188513863751403,722245,467919
1262.07804635718,0.188275380204306,729150,472652
1265.52670510484,0.187888653952322,735087,476925
1268.97101100239,0.18766436045681,741364,481246
1273.55664776562,0.187105180274354,749732,487305
1276.99079701291,0.187322228166856,755462,490784
1280.42059341009,0.187043202249219,760527,494392
1283.84603695715,0.186605818024333,765721,498270
1287.26712765411,0.186418748492391,771296,502114
1290.68386550095,0.185998538670684,776377,505911
1294.09625049768,0.185807862472995,780750,508984
1298.63932605982,0.185331017304174,787412,513891
1302.04155440629,0.185458958585331,792213,516872
1305.43942990264,0.185402735701629,796285,519596
1308.83295254889,0.185083361554664,800280,522587
1312.22212234502,0.185099516429715,804218,525139
1315.60693929105,0.18496032984063,808002,527779
1320.11325745224,0.184792473009589,811886,530521
1323.487917748,0.18500833840994,813980,531625
1326.85822519365,0.184941112024003,816481,533341
1330.22417978919,0.185289243543856,819080,534610
1333.58578153461,0.185612244012449,820985,535455
1336.94303042993,0.185619987117982,821984,536097
1340.29592647513,0.186213160693016,823565,536395
1344.75968343522,0.186547982699685,824529,536609
1348.10242283016,0.187182304720703,824260,535651
1351.44080937499,0.187566417454318,823078,534410
1354.77484306971,0.18792413476891,820883,532546
1358.10452391432,0.18860750022878,819142,530581
1361.42985190881,0.189107718037948,817562,528948
1364.75082705319,0.189373741878843,816770,528112
1369.17202281219,0.190060926778401,817261,527594
1372.48284130632,0.190584327127881,817240,526945
1375.78930695032,0.191487180804386,815130,524493
1379.09141974422,0.191762256354107,811768,521999
1382.38917968801,0.19256564671756,808192,518739
1385.68258678168,0.193655052261558,805394,515648
1388.97164102524,0.194937391860399,802216,512099
1393.35027558315,0.196596611362163,796641,506601
1396.62917317645,0.198382005713287,793152,502313
1399.90371791964,0.200424194568904,790716,498421
1403.17390981272,0.202487739502452,789547,495325
1406.43974885568,0.205287540030003,790155,492521
1409.70123504853,0.208404556702586,791049,489552
1412.95836839128,0.211473213217877,791332,486279
1417.29444174809,0.215707385113596,791304,481544
1420.54141844057,0.218642076413624,791395,478356
1423.78404228294,0.221806878637065,791707,475070
1427.0223132752,0.22427897179886,790538,471676
1430.25623141734,0.22648419539577,790041,468992
1433.48579670937,0.227887139416377,789077,466909
1436.71100915129,0.229781293684181,788325,464434
1441.00452130702,0.231474989560327,787009,461854
1444.21957709868,0.231818721748839,785364,460524
1447.43028004022,0.232456359741744,783302,458641
1450.63663013166,0.23280331168739,781224,457059
1453.83862737298,0.232943261023109,778405,455263
1457.0362717642,0.233157409142129,775472,453324
1460.2295633053,0.233468485334952,772354,451178
1464.48051425993,0.233787963083824,767377,447941
1467.66364915076,0.233718855805184,763562,445785
1470.84243119149,0.23330877872348,759039,443563
1474.01686038211,0.233236351629488,755032,441295
1477.18693672261,0.233064963049312,749906,438472
1480.35266021301,0.232555732208652,744912,436063
1483.51403085329,0.23249016499381,739117,432736
1487.72242060682,0.231948238747394,731846,429014
1490.87363459684,0.23180174061115,725692,425550
1494.02049573675,0.231500212146396,719592,422266
1497.16300402654,0.231011440217193,713453,419135
1500.30115946623,0.230451377965237,707153,415970
1503.4349620558,0.229808041396134,700109,412437
1506.56441179526,0.22920356946323,692948,408787
1510.7302403477,0.228065473710208,683714,404398
1513.8495334369,0.227678024185964,676106,400255
1516.96447367598,0.227051809338224,667366,395651
1520.07506106496,0.226045755590422,659082,391646
1523.18129560382,0.22560827051444,651487,387523
1526.28317729258,0.22509185589763,643573,383271
1529.38070613122,0.224532589924783,634883,378583
1533.50397348256,0.223489322148064,623536,372711
1536.59134567094,0.223245940310911,614574,367560
1539.67436500921,0.222809436901877,605685,362608
1542.75303149736,0.222399130754921,596659,357542
1545.82734513541,0.22209877395415,587278,352164
1548.89730592334,0.221686716862462,577941,346894
1551.96291386116,0.221156647926815,568272,341507
1556.04362001141,0.220622170045735,554751,333792
1559.09907129897,0.220206937859851,545029,328256
1562.15016973641,0.219989295758805,534641,322161
1565.19691532375,0.219923059283365,524763,316257
1568.23930806097,0.219100296898256,514338,310562
1571.27734794808,0.219387009576299,504416,304370
1574.31103498508,0.219136160244366,494293,298434
1578.34917993424,0.218754313309764,480749,290512
1581.37271032098,0.218332064273543,470665,284695
1584.39188785761,0.218240036514948,460691,278721
1587.40671254412,0.21780153676873,450195,272646
1590.41718438052,0.217538940052137,439883,266562
1593.42330336681,0.217236093924304,429090,260203
1596.42506950299,0.216658115391711,419287,254597
1600.42065325106,0.215532080118428,405366,246783
1603.41226273698,0.214929648189956,395054,240839
1606.39951937278,0.214463111685136,385195,235081
1609.38242315848,0.213525103549681,375386,229590
1612.36097409406,0.213538993291184,365563,223575
1615.33517217953,0.212963283829549,355567,217750
1618.30501741489,0.212575340966804,346146,212170
1622.25803996186,0.212975729858714,333769,204395
1625.21772854696,0.212237028167132,324001,198751
1628.17306428194,0.212246062062867,314797,193101
1631.12404716682,0.212034127554917,305328,187384
1634.07067720158,0.211828677583275,296226,181884
1637.01295438623,0.211914602146437,287019,176196
1639.95087872077,0.211112705146722,277441,170631
1643.86134006665,0.211943275427539,264915,162616
1646.78910775092,0.211932642462302,255737,156986
1649.71252258509,0.210985156364937,246363,151562
1652.63158456914,0.211518991158086,237596,145989
1655.54629370308,0.21302100613179,228622,139990
1658.45664998691,0.211624204393301,219641,134924
1661.36265342063,0.213522095510944,210716,128877
1665.23055356542,0.214108934111629,197705,120756
1668.12640034887,0.21462185503552,187448,114356
1671.01789428222,0.215792860355103,176306,107269
1673.90503536545,0.216493209764629,163605,99381
1676.78782359857,0.216426297229713,149449,90796
1679.66625898158,0.217456724752328,134818,81713
1682.54034151448,0.219398322741086,119648,72195
1686.36568045817,0.219211508456695,99875,60290
1689.22960634081,0.222220468611247,85715,51385
1692.08917937333,0.222434513862856,72955,43714
1694.94439955575,0.221326936772419,61829,37142
1697.79526688805,0.22688619030797,52809,31320
1700.64178137024,0.223077333620383,44957,26898
