***Scan Config Information***,,,,,,,***Reference Scan Information***,,,,,,,,
Scan Config Name:,FolHerbario,,,,,,Scan Config Name:,Local New Reference,,,,,,,
Scan Config Type:,Slew,Num Section:,1,,,,Scan Config Type:,Slew,Num Section:,1,,,,,
Section Config Type:,Column,,,,,,Section Config Type:,Column,,,,,,,
Start Wavelength (nm):,900,,,,,,Start Wavelength (nm):,900,,,,,,,
End Wavelength (nm):,1700,,,,,,End Wavelength (nm):,1700,,,,,,,
Pattern Width (nm):,7.03,,,,,,Pattern Width (nm):,7.03,,,,,,,
Exposure (ms):,0.635,,,,,,Exposure (ms):,0.635,,,,,,,
Digital Resolution:,228,,,,,,Digital Resolution:,228,,,,,,,
Num Repeats:,20,,,,,,Num Repeats:,20,,,,,,,
PGA Gain:,64,(FixedPGA),,,,,PGA Gain:,64,(AutoPGA),,,,,,
System Temp (C):,38.38,,,,,,System Temp (C):,37.86,,,,,,,
Humidity (%):,46.5,,,,,,Humidity (%):,47.32,,,,,,,
Lamp ADC:,3077,3078,831,849,,,Lamp ADC:,3077,3078,831,849,,,,
Data Date-Time:,2025/04/03T10:30:31,,,,,,Data Date-Time:,2025/04/03T10:24:56,,,,,,,
Total Measurement Time in sec:,6.5062334,,,,,,,,,,,,,,
,,,,,,,,,,,,,,,
***General Information***,,,,,,,***Calibration Coefficients***,,,,,,,,
Model Name:,NIR-S-G1,,,,,,Shift Vector Coefficients:,-5.74589567087503,0.0468271937173058,-9.53581739805986E-05,,,,,
Serial Number:,C23R002,(95UB125GC0VC23R002),,,,,Pixel to Wavelength Coefficients:,1756.1983651918,-0.919335509971685,-0.000241825006214287,,,,,
GUI Version:,3.13.1,Revision:,930,,,,Versions (Cal/Ref/Cfg):,1,3,1,,,,,
TIVA Version:,2.4.10,,,,,,***Lamp Usage ***,,,,,,,,
DLPC Version:,2.3.1,,,,,,Total Time(hh:mm:ss):,5min 46sec ,,,,,,,
UUID:,DE:67:0C:88:67:76:74:21,,,,,,***Device/Error/Activation Status***,,,,,,,,
Main Board Version:,F,,,,,,Device Status:,0x00000001,Activation Status:,Activated,,,,,
Detector Board Version:,C,,,,,,Error status:,0x00000000,Error Code:,0x00000000000000000000000000000000,,,,,
,,,,,,,,,Error Details:,Not found,,,,,
***Scan Data***,,,,,,,,,,,,,,,
Wavelength (nm),Reflectance (unitless)
901.701099874012,0.51125848241826
905.577788882674,0.515077821011673
909.450125041225,0.515185296211639
913.318108349663,0.518757210141471
917.18173880799,0.521012909789201
921.041016416205,0.522121238103404
926.179948793651,0.524375429468931
930.029069751605,0.524140443603421
933.873837859447,0.524574541162356
937.714253117177,0.527550643595695
941.550315524795,0.528391321344801
945.382025082302,0.529598450821656
949.209381789697,0.532170522789282
954.305752966049,0.532697056293871
958.122953023182,0.533419389448626
961.935800230204,0.534406856697617
965.744294587114,0.535677669082087
969.548436093912,0.537071473284973
973.348224750598,0.537460901839297
977.143660557173,0.538285677579849
982.197470532431,0.53929758782984
985.982749688744,0.540512232225242
989.763675994946,0.540465166800179
993.540249451036,0.541682210119054
997.312470057013,0.542336220785471
1001.08033781288,0.543160362806195
1004.84385271863,0.543247532672004
1009.8551014928,0.544212436120494
1013.60845974829,0.544465005164657
1017.35746515367,0.545435395298835
1021.10211770894,0.545466530200361
1024.8424174141,0.54565227726538
1028.57836426914,0.546402308260335
1032.30995827408,0.546245304137052
1037.27864584715,0.54717469647668
1041.00008320182,0.547470799963797
1044.71716770638,0.54739654722088
1048.42989936083,0.546892624154616
1052.13827816517,0.547803409954385
1055.8423041194,0.547527335700219
1059.54197722351,0.547789016056891
1064.46810359549,0.547537545802126
1068.15762004934,0.548635032380744
1071.84278365308,0.548497635102525
1075.52359440671,0.549202610689389
1079.20005231022,0.54884464041526
1082.87215736363,0.549266925649805
1086.53990956692,0.549920178836586
1091.42347473781,0.550170542563858
1095.08107029084,0.55054172403155
1098.73431299376,0.550499973667519
1102.38320284657,0.550281790562173
1106.02773984926,0.550541280520206
1109.66792400185,0.551411283567821
1113.30375530432,0.550353393974075
1118.14475927411,0.551246658205876
1121.77043392632,0.551472984317373
1125.39175572842,0.550169647576341
1129.00872468041,0.550551948941299
1132.62134078229,0.550153424680348
1136.22960403405,0.54992596248766
1139.83351443571,0.549785881382147
1144.6319572044,0.549144858437577
1148.22571095579,0.549243984349011
1151.81511185707,0.548974251499352
1155.40015990824,0.548447464877138
1158.9808551093,0.547891318794755
1162.55719746024,0.547224268639813
1166.12918696107,0.546877637289064
1170.88506852868,0.546239324767279
1174.44690137925,0.546142903117274
1178.00438137971,0.545620708482335
1181.55750853005,0.544822661782312
1185.10628283029,0.545436376692147
1188.65070428041,0.545138609672784
1192.19077288043,0.544603349097044
1196.90409324693,0.544910628241408
1200.43400519669,0.544988189579556
1203.95956429632,0.545167056693086
1207.48077054585,0.545249713422045
1210.99762394527,0.545534795479928
1214.51012449457,0.54565470689863
1218.01827219376,0.545643752976663
1222.68903135918,0.546458428225512
1226.18702240811,0.547012797868055
1229.68066060693,0.546689639632044
1233.16994595564,0.54779659167379
1236.65487845423,0.547685669671396
1240.13545810271,0.547682319524881
1243.61168490109,0.548053477568646
1248.23988286541,0.548293860181503
1251.70595301352,0.548209315822099
1255.16767031152,0.548725957908513
1258.6250347594,0.548673656186998
1262.07804635718,0.548526174084462
1265.52670510484,0.548743775987208
1268.97101100239,0.548726756978299
1273.55664776562,0.548998852136213
1276.99079701291,0.548718321878163
1280.42059341009,0.548760358816526
1283.84603695715,0.548687704281679
1287.26712765411,0.549094386713784
1290.68386550095,0.549170903669294
1294.09625049768,0.548602715893027
1298.63932605982,0.549022269643734
1302.04155440629,0.54890538216026
1305.43942990264,0.548828772282199
1308.83295254889,0.548925233411429
1312.22212234502,0.548656112432669
1315.60693929105,0.548833716444759
1320.11325745224,0.548164431851471
1323.487917748,0.548074809911957
1326.85822519365,0.547822352620188
1330.22417978919,0.547501378903028
1333.58578153461,0.546776842999943
1336.94303042993,0.54648448086648
1340.29592647513,0.546247127950488
1344.75968343522,0.545547118210119
1348.10242283016,0.544532940115055
1351.44080937499,0.543982417475669
1354.77484306971,0.542988798971789
1358.10452391432,0.542583868630412
1361.42985190881,0.541932620211002
1364.75082705319,0.541183610492867
1369.17202281219,0.540521176939498
1372.48284130632,0.539821017867645
1375.78930695032,0.538754156060771
1379.09141974422,0.538142700848053
1382.38917968801,0.537238665458407
1385.68258678168,0.535904410432555
1388.97164102524,0.534529683083987
1393.35027558315,0.532312082225437
1396.62917317645,0.530217945260377
1399.90371791964,0.527363404100467
1403.17390981272,0.524373529609039
1406.43974885568,0.520942173321951
1409.70123504853,0.517462407273802
1412.95836839128,0.51347146987891
1417.29444174809,0.508772948811839
1420.54141844057,0.505478078846965
1423.78404228294,0.501667156945056
1427.0223132752,0.498970786511175
1430.25623141734,0.49639222988529
1433.48579670937,0.494754753386052
1436.71100915129,0.493030923968071
1441.00452130702,0.492456923929005
1444.21957709868,0.491717952242058
1447.43028004022,0.491014549694234
1450.63663013166,0.491070126560905
1453.83862737298,0.490811957035181
1457.0362717642,0.490869468844076
1460.2295633053,0.490578389224756
1464.48051425993,0.491006599155371
1467.66364915076,0.490965732087227
1470.84243119149,0.491887927935993
1474.01686038211,0.492477425657903
1477.18693672261,0.492866044236523
1480.35266021301,0.493966960231201
1483.51403085329,0.494236749800136
1487.72242060682,0.495164882887878
1490.87363459684,0.495688473812006
1494.02049573675,0.496577682713409
1497.16300402654,0.49717640731445
1500.30115946623,0.497884619189062
1503.4349620558,0.498610423182167
1506.56441179526,0.499018035840971
1510.7302403477,0.500290913556279
1513.8495334369,0.501538770964922
1516.96447367598,0.502346876250032
1520.07506106496,0.502738179144973
1523.18129560382,0.503464702670536
1526.28317729258,0.504080035770177
1529.38070613122,0.504583357602643
1533.50397348256,0.505306562181366
1536.59134567094,0.505777081236801
1539.67436500921,0.506504496895394
1542.75303149736,0.506680648900742
1545.82734513541,0.507284089710032
1548.89730592334,0.508160314374468
1551.96291386116,0.507859912599249
1556.04362001141,0.509095104272383
1559.09907129897,0.509025389926554
1562.15016973641,0.509658982592151
1565.19691532375,0.509353636212982
1568.23930806097,0.509583724277797
1571.27734794808,0.509784538092144
1574.31103498508,0.510224376400963
1578.34917993424,0.510819208745986
1581.37271032098,0.511356004250797
1584.39188785761,0.511600298634442
1587.40671254412,0.512271027332538
1590.41718438052,0.512354684190912
1593.42330336681,0.513472575973304
1596.42506950299,0.513851099193281
1600.42065325106,0.514391078418805
1603.41226273698,0.515134347685335
1606.39951937278,0.51577232984742
1609.38242315848,0.516308429884139
1612.36097409406,0.515957766732827
1615.33517217953,0.517734063507138
1618.30501741489,0.517815056148621
1622.25803996186,0.517972366811389
1625.21772854696,0.518120560917866
1628.17306428194,0.518905445747586
1631.12404716682,0.519239842726081
1634.07067720158,0.518847792762069
1637.01295438623,0.519674445354572
1639.95087872077,0.519638813160818
1643.86134006665,0.520695908421172
1646.78910775092,0.520436596457448
1649.71252258509,0.520595950654181
1652.63158456914,0.519416576112136
1655.54629370308,0.518719362745098
1658.45664998691,0.51912426563275
1661.36265342063,0.518567242435612
1665.23055356542,0.516732861861436
1668.12640034887,0.516587297340682
1671.01789428222,0.516852779140195
1673.90503536545,0.515567799430537
1676.78782359857,0.514451374857243
1679.66625898158,0.515279383719009
1682.54034151448,0.514396273007306
1686.36568045817,0.511288004647702
1689.22960634081,0.512397577484859
1692.08917937333,0.506802293942819
1694.94439955575,0.509248308036008
1697.79526688805,0.511254831128979
1700.64178137024,0.508605597617261
