***Scan Config Information***,,,,,,,***Reference Scan Information***,,,,,,,,
Scan Config Name:,FolHerbario,,,,,,Scan Config Name:,Local New Reference,,,,,,,
Scan Config Type:,Slew,Num Section:,1,,,,Scan Config Type:,Slew,Num Section:,1,,,,,
Section Config Type:,Column,,,,,,Section Config Type:,Column,,,,,,,
Start Wavelength (nm):,900,,,,,,Start Wavelength (nm):,900,,,,,,,
End Wavelength (nm):,1700,,,,,,End Wavelength (nm):,1700,,,,,,,
Pattern Width (nm):,7.03,,,,,,Pattern Width (nm):,7.03,,,,,,,
Exposure (ms):,0.635,,,,,,Exposure (ms):,0.635,,,,,,,
Digital Resolution:,228,,,,,,Digital Resolution:,228,,,,,,,
Num Repeats:,20,,,,,,Num Repeats:,20,,,,,,,
PGA Gain:,64,(FixedPGA),,,,,PGA Gain:,64,(AutoPGA),,,,,,
System Temp (C):,38.5,,,,,,System Temp (C):,38.26,,,,,,,
Humidity (%):,45.9,,,,,,Humidity (%):,47.08,,,,,,,
Lamp ADC:,3083,3086,851,854,,,Lamp ADC:,3083,3085,851,853,,,,
Data Date-Time:,2025/04/03T10:22:18,,,,,,Data Date-Time:,2025/04/03T10:15:11,,,,,,,
Total Measurement Time in sec:,6.4855814,,,,,,,,,,,,,,
,,,,,,,,,,,,,,,
***General Information***,,,,,,,***Calibration Coefficients***,,,,,,,,
Model Name:,NIR-S-G1,,,,,,Shift Vector Coefficients:,-2.27453457587495,0.0384893477179632,-0.000120883834660424,,,,,
Serial Number:,C23R004,(95UB125GC0VC23R004),,,,,Pixel to Wavelength Coefficients:,1773.06832862561,-0.918144602406657,-0.000240533803363975,,,,,
GUI Version:,3.13.1,Revision:,930,,,,Versions (Cal/Ref/Cfg):,1,3,1,,,,,
TIVA Version:,2.4.10,,,,,,***Lamp Usage ***,,,,,,,,
DLPC Version:,2.3.1,,,,,,Total Time(hh:mm:ss):,6min 8sec ,,,,,,,
UUID:,DE:67:0C:88:67:66:73:21,,,,,,***Device/Error/Activation Status***,,,,,,,,
Main Board Version:,F,,,,,,Device Status:,0x00000001,Activation Status:,Activated,,,,,
Detector Board Version:,C,,,,,,Error status:,0x00000000,Error Code:,0x00000000000000000000000000000000,,,,,
,,,,,,,,,Error Details:,Not found,,,,,
***Scan Data***,,,,,,,,,,,,,,,
Wavelength (nm),Reflectance (unitless)
900.860912737931,0.511328343770684
904.749703961815,0.516208375378406
909.9280239805,0.520211898352303
913.806712784643,0.526385886478781
917.681071980326,0.53081727689351
921.551101567548,0.535377292454151
925.41680154631,0.540111368392252
929.278171916611,0.544101640034026
933.135212678451,0.547359826930967
936.987923831831,0.55265981326901
942.118137089843,0.558045235979992
945.960745823482,0.562081266573588
949.79902494866,0.566845236241318
953.632974465377,0.570468398384525
957.462594373634,0.574209726879317
961.287884673431,0.57864401721918
965.108845364766,0.581764734152476
970.196724673387,0.586067240951433
974.007582944981,0.589238796212748
977.814111608115,0.59344874455231
981.616310662789,0.596454243930076
985.414180109002,0.598782714265601
989.207719946754,0.602003282213797
992.996930176046,0.605224521393265
996.781810796877,0.608019241974843
1001.82158334482,0.611006777169919
1005.59636154591,0.614205340398297
1009.36681013854,0.616667122834868
1013.13292912271,0.619015792188913
1016.89471849842,0.62168878296685
1020.65217826567,0.624361556499407
1024.40530842446,0.626960667264988
1028.15410897478,0.629386266332143
1033.14577476206,0.632221186449359
1036.88447289264,0.635357624279218
1040.61884141477,0.637475091204513
1044.34888032843,0.640344560952759
1048.07458963364,0.641321474159992
1051.79596933038,0.643431492187147
1055.51301941866,0.645240166749822
1059.22573989848,0.6467843866171
1064.16929892509,0.648536923299626
1067.87191698517,0.650311716319558
1071.57020543679,0.652232180594987
1075.26416427995,0.653165181462181
1078.95379351464,0.654668519156052
1082.63909314088,0.656341695335806
1086.32006315866,0.657867121866862
1091.22128823587,0.658945925238921
1094.89215583391,0.660771027756518
1098.55869382348,0.66140049032658
1102.2209022046,0.662295159581708
1105.87878097725,0.662726724516008
1109.53233014145,0.664553652482063
1113.18154969718,0.664924312682807
1116.82643964446,0.665624402005435
1121.67955796099,0.666772719439284
1125.31434548853,0.668007840127609
1128.9448034076,0.668216660819979
1132.57093171821,0.668680908870501
1136.19273042036,0.669147494131606
1139.81019951405,0.669100204089435
1143.42333899928,0.669584217393976
1147.03214887605,0.670015605661088
1151.83716043191,0.670614141708084
1155.43586788894,0.670858734246739
1159.03024573751,0.67088917019512
1162.62029397761,0.670334538268665
1166.20601260926,0.670112991444199
1169.78740163244,0.670435706695005
1173.36446104717,0.670273894374039
1176.93719085343,0.671275099949462
1181.69409564862,0.670800027665524
1185.25672303515,0.671496711008591
1188.81502081321,0.671605332404613
1192.36898898281,0.672179726824414
1195.91862754395,0.672994503155246
1199.46393649663,0.673697015065032
1203.00491584085,0.674756046605929
1206.54156557661,0.676076029071195
1211.25036361113,0.677375715079353
1214.77691092715,0.678317099245709
1218.29912863471,0.67956749712736
1221.8170167338,0.681658211932645
1225.33057522444,0.683310092470391
1228.83980410662,0.685003198976328
1232.34470338033,0.686068838053218
1237.01116746546,0.688343525828335
1240.50596431943,0.68883425861255
1243.99643156495,0.690225847904718
1247.482569202,0.691366604351242
1250.96437723059,0.692196597555915
1254.44185565073,0.693053733173214
1257.9150044624,0.693783451705104
1261.38382366561,0.694748287964168
1266.00218099006,0.695664526829868
1269.46089777353,0.695863354573599
1272.91528494854,0.697243243583846
1276.36534251509,0.697964467290772
1279.81107047318,0.698050005090398
1283.2524688228,0.698397697283599
1286.68953756397,0.69908324192745
1290.12227669668,0.700180955916111
1294.69252726046,0.700363894128414
1298.11516397342,0.700879102549071
1301.53347107793,0.70126728957103
1304.94744857397,0.701640686823711
1308.35709646156,0.701393995281494
1311.76241474068,0.70211504131678
1315.16340341134,0.701914677283077
1318.56006247354,0.701722593159191
1323.08220627665,0.701596135284099
1326.46876291911,0.701637857574705
1329.85098995311,0.700956063896243
1333.22888737865,0.700644083288109
1336.60245519573,0.6999192351401
1339.97169340435,0.698829931713227
1343.33660200451,0.698389167945816
1347.81641185822,0.696754868894786
1351.17121803864,0.695574744502551
1354.52169461059,0.69447207273404
1357.86784157409,0.693309152225733
1361.20965892912,0.692567802132882
1364.5471466757,0.691538155152149
1367.88030481381,0.690347207684331
1371.20913334347,0.689054808712017
1375.64083643651,0.687456986924025
1378.95956254642,0.686215631987414
1382.27395904787,0.684014522161762
1385.58402594086,0.682434357775075
1388.88976322539,0.67968534782334
1392.19117090146,0.675763988933794
1395.48824896907,0.672061119398279
1398.78099742822,0.667668927157541
1403.16459376059,0.660390085756118
1406.4472398,0.654205263690311
1409.72555623094,0.647808907809198
1412.99954305343,0.640777789672203
1416.26920026746,0.633727660183142
1419.53452787302,0.62754611556377
1422.79552587013,0.622483312999828
1426.05219425877,0.617203496062866
1430.38768383047,0.612144544229307
1433.63424979937,0.608989247254384
1436.87648615981,0.606387659601216
1440.11439291179,0.60513364520112
1443.34797005532,0.603975742052334
1446.57721759038,0.603373086447924
1449.80213551698,0.602932162654781
1453.02272383511,0.602822249451304
1457.31010664614,0.603173723365856
1460.52059254454,0.603678253839935
1463.72674883448,0.604615818308841
1466.92857551595,0.604462677059439
1470.12607258897,0.605527465676487
1473.31924005352,0.606191607000192
1476.50807790962,0.607748691099476
1480.75312677125,0.609009046741498
1483.93186220761,0.610530012502283
1487.1062680355,0.611306491465145
1490.27634425493,0.613089785677304
1493.44209086591,0.614180602772996
1496.60350786842,0.615854291947045
1499.76059526247,0.617187920116619
1502.91335304806,0.618904123643346
1507.11029514902,0.621051851522495
1510.25295051487,0.622204681798272
1513.39127627226,0.624264728062502
1516.52527242119,0.625225584996769
1519.65493896165,0.626174363455394
1522.78027589366,0.627876885848342
1525.90128321721,0.629569339460912
1529.01796093229,0.629789453265367
1533.16679627258,0.631475807429565
1536.27337156793,0.632767732415794
1539.37561725481,0.633615796706032
1542.47353333323,0.633708575425005
1545.5671198032,0.634256328708972
1548.6563766647,0.635102406833239
1551.74130391774,0.635718652070657
1554.82190156232,0.636420619528764
1558.92263014194,0.637276312906289
1561.99312536678,0.637699630650783
1565.05929098316,0.638116279773615
1568.12112699108,0.638550250288795
1571.17863339054,0.639547638998181
1574.23181018153,0.640325836245682
1577.28065736407,0.639998776546394
1580.32517493815,0.641034179886691
1584.37779675709,0.641803497887362
1587.41221191143,0.642442426243705
1590.4422974573,0.643476939170552
1593.46805339471,0.644584594839335
1596.48947972367,0.644784166348811
1599.50657644416,0.64661216631706
1602.5193435562,0.647685637892456
1606.52963142574,0.649051305403764
1609.53229611804,0.650091923442941
1612.53063120187,0.65133271777569
1615.52463667724,0.652151133281304
1618.51431254415,0.652602252884774
1621.4996588026,0.654157551441575
1624.48067545259,0.654410653038114
1627.45736249411,0.65486474614737
1631.41954360299,0.655528615767393
1634.38612822478,0.6569573356723
1637.3483832381,0.656350380709377
1640.30630864297,0.658171477439832
1643.25990443938,0.657496048486239
1646.20917062732,0.658200349360493
1649.15410720681,0.657530108965781
1652.09471417783,0.656090071647902
1656.00878852603,0.656427348514055
1658.93929307732,0.654987916305879
1661.86546802014,0.654589480493809
1664.7873133545,0.653505411921738
1667.7048290804,0.651076690968104
1670.61801519784,0.64962648771841
1673.52687170682,0.649842917634203
1676.43139860734,0.648447723618779
1680.29736619487,0.647099909990999
1683.19179067565,0.64565950067079
1686.08188554796,0.644075623916158
1688.96765081182,0.643269389325565
1691.84908646722,0.640765736867767
1694.72619251415,0.64347983197073
1697.59896895263,0.64348770405661
1701.42260259077,0.640619672690078
