***Scan Config Information***,,,,,,,***Reference Scan Information***,,,,,,,,
Scan Config Name:,FolHerbario,,,,,,Scan Config Name:,Local New Reference,,,,,,,
Scan Config Type:,Slew,Num Section:,1,,,,Scan Config Type:,Slew,Num Section:,1,,,,,
Section Config Type:,Column,,,,,,Section Config Type:,Column,,,,,,,
Start Wavelength (nm):,900,,,,,,Start Wavelength (nm):,900,,,,,,,
End Wavelength (nm):,1700,,,,,,End Wavelength (nm):,1700,,,,,,,
Pattern Width (nm):,7.03,,,,,,Pattern Width (nm):,7.03,,,,,,,
Exposure (ms):,0.635,,,,,,Exposure (ms):,0.635,,,,,,,
Digital Resolution:,228,,,,,,Digital Resolution:,228,,,,,,,
Num Repeats:,20,,,,,,Num Repeats:,20,,,,,,,
PGA Gain:,64,(FixedPGA),,,,,PGA Gain:,64,(AutoPGA),,,,,,
System Temp (C):,40.95,,,,,,System Temp (C):,41,,,,,,,
Humidity (%):,40.42,,,,,,Humidity (%):,40.91,,,,,,,
Lamp ADC:,3083,3086,851,854,,,Lamp ADC:,3083,3085,851,854,,,,
Data Date-Time:,2025/04/03T11:44:59,,,,,,Data Date-Time:,2025/04/03T11:42:37,,,,,,,
Total Measurement Time in sec:,6.4931285,,,,,,,,,,,,,,
,,,,,,,,,,,,,,,
***General Information***,,,,,,,***Calibration Coefficients***,,,,,,,,
Model Name:,NIR-S-G1,,,,,,Shift Vector Coefficients:,-2.27453457587495,0.0384893477179632,-0.000120883834660424,,,,,
Serial Number:,C23R004,(95UB125GC0VC23R004),,,,,Pixel to Wavelength Coefficients:,1773.06832862561,-0.918144602406657,-0.000240533803363975,,,,,
GUI Version:,3.13.1,Revision:,930,,,,Versions (Cal/Ref/Cfg):,1,3,1,,,,,
TIVA Version:,2.4.10,,,,,,***Lamp Usage ***,,,,,,,,
DLPC Version:,2.3.1,,,,,,Total Time(hh:mm:ss):,13min 55sec ,,,,,,,
UUID:,DE:67:0C:88:67:66:73:21,,,,,,***Device/Error/Activation Status***,,,,,,,,
Main Board Version:,F,,,,,,Device Status:,0x00000001,Activation Status:,Activated,,,,,
Detector Board Version:,C,,,,,,Error status:,0x00000000,Error Code:,0x00000000000000000000000000000000,,,,,
,,,,,,,,,Error Details:,Not found,,,,,
***Scan Data***,,,,,,,,,,,,,,,
Wavelength (nm),Reflectance (unitless)
900.860912737931,0.580708978985353
904.749703961815,0.578743847214019
909.9280239805,0.581136289944879
913.806712784643,0.584276729559748
917.681071980326,0.586610631139156
921.551101567548,0.590529090991032
925.41680154631,0.589965741395898
929.278171916611,0.593475556374695
933.135212678451,0.594896698010789
936.987923831831,0.595693615329934
942.118137089843,0.597508804191315
945.960745823482,0.598574767500776
949.79902494866,0.601687212053293
953.632974465377,0.601947379694417
957.462594373634,0.603440347976089
961.287884673431,0.604528019253169
965.108845364766,0.605425180928055
970.196724673387,0.606811508502916
974.007582944981,0.607735681859811
977.814111608115,0.608702982888855
981.616310662789,0.609720159425467
985.414180109002,0.61026024013328
989.207719946754,0.61066393174723
992.996930176046,0.612588375702743
996.781810796877,0.612595586247787
1001.82158334482,0.614136583634003
1005.59636154591,0.6147428658436
1009.36681013854,0.615638434271061
1013.13292912271,0.61604206528762
1016.89471849842,0.617162759278884
1020.65217826567,0.618036175179179
1024.40530842446,0.618825008549004
1028.15410897478,0.618889145077139
1033.14577476206,0.620487155043876
1036.88447289264,0.620828815927846
1040.61884141477,0.621162442295613
1044.34888032843,0.621958186693992
1048.07458963364,0.622023015564321
1051.79596933038,0.622972721757019
1055.51301941866,0.623095190772906
1059.22573989848,0.624572965177788
1064.16929892509,0.624808172568574
1067.87191698517,0.62506162695152
1071.57020543679,0.625874161717099
1075.26416427995,0.625993615502754
1078.95379351464,0.627125557264114
1082.63909314088,0.627412876526514
1086.32006315866,0.628182497525902
1091.22128823587,0.628271410680453
1094.89215583391,0.628395329883287
1098.55869382348,0.629096022292408
1102.2209022046,0.629214167301754
1105.87878097725,0.629340008695127
1109.53233014145,0.629302759992961
1113.18154969718,0.630337311565023
1116.82643964446,0.629793322068189
1121.67955796099,0.629903639509499
1125.31434548853,0.630017200493368
1128.9448034076,0.630261418001367
1132.57093171821,0.629688133593836
1136.19273042036,0.629666733697739
1139.81019951405,0.629375209790527
1143.42333899928,0.628058792110938
1147.03214887605,0.628095852192147
1151.83716043191,0.62754618141228
1155.43586788894,0.626926601245009
1159.03024573751,0.626477705766182
1162.62029397761,0.626532814379928
1166.20601260926,0.625721782983347
1169.78740163244,0.624895849562737
1173.36446104717,0.624137844254113
1176.93719085343,0.62351430716388
1181.69409564862,0.622901920634764
1185.25672303515,0.622680462568472
1188.81502081321,0.622228218013391
1192.36898898281,0.622123401889939
1195.91862754395,0.622304219823356
1199.46393649663,0.6223000683527
1203.00491584085,0.622487449725959
1206.54156557661,0.623332999401959
1211.25036361113,0.624003900641332
1214.77691092715,0.62490419528478
1218.29912863471,0.625025036732725
1221.8170167338,0.626109519339662
1225.33057522444,0.627187749461378
1228.83980410662,0.627829014391435
1232.34470338033,0.627841869877056
1237.01116746546,0.629227994728446
1240.50596431943,0.629448158166514
1243.99643156495,0.629750950803582
1247.482569202,0.630493439390115
1250.96437723059,0.630897155711179
1254.44185565073,0.63150688725946
1257.9150044624,0.63150131896159
1261.38382366561,0.631899393089665
1266.00218099006,0.632176388219361
1269.46089777353,0.632336554630361
1272.91528494854,0.632337471599111
1276.36534251509,0.632779922683689
1279.81107047318,0.632774834002848
1283.2524688228,0.632746420850437
1286.68953756397,0.633796666108041
1290.12227669668,0.633738261582676
1294.69252726046,0.633307454730584
1298.11516397342,0.63350405601921
1301.53347107793,0.63383481930661
1304.94744857397,0.633829765847868
1308.35709646156,0.633734001817277
1311.76241474068,0.633964351186347
1315.16340341134,0.633935835644855
1318.56006247354,0.633460461724298
1323.08220627665,0.633509183158769
1326.46876291911,0.632865283154938
1329.85098995311,0.63226230410461
1333.22888737865,0.631701496219714
1336.60245519573,0.631052829006097
1339.97169340435,0.630317957105686
1343.33660200451,0.629515397526397
1347.81641185822,0.628110412015425
1351.17121803864,0.626901330317165
1354.52169461059,0.625681092252771
1357.86784157409,0.624705155531591
1361.20965892912,0.623789335229465
1364.5471466757,0.622557371941542
1367.88030481381,0.621755440323517
1371.20913334347,0.620715732580102
1375.64083643651,0.619383988409453
1378.95956254642,0.618158864768609
1382.27395904787,0.616695294652822
1385.58402594086,0.615119999899964
1388.88976322539,0.61286842005867
1392.19117090146,0.610896622890736
1395.48824896907,0.607891000093638
1398.78099742822,0.604826879356451
1403.16459376059,0.599410409157286
1406.4472398,0.595110069276201
1409.72555623094,0.589899486198566
1412.99954305343,0.584869432149362
1416.26920026746,0.579747119606484
1419.53452787302,0.575115600128106
1422.79552587013,0.570431526764418
1426.05219425877,0.566761407006891
1430.38768383047,0.562957485743467
1433.63424979937,0.560551739929788
1436.87648615981,0.558758187791112
1440.11439291179,0.557725702548782
1443.34797005532,0.557293029864379
1446.57721759038,0.556499908330423
1449.80213551698,0.556220446697869
1453.02272383511,0.556082167583428
1457.31010664614,0.55624152461266
1460.52059254454,0.556297366548428
1463.72674883448,0.556317258845357
1466.92857551595,0.556654428699532
1470.12607258897,0.556884604538722
1473.31924005352,0.557494270519519
1476.50807790962,0.558405637439543
1480.75312677125,0.559004974847372
1483.93186220761,0.559398390947856
1487.1062680355,0.560542387208115
1490.27634425493,0.560979965558052
1493.44209086591,0.56162118869468
1496.60350786842,0.562299363716906
1499.76059526247,0.563312111882273
1502.91335304806,0.564192031313899
1507.11029514902,0.565591375612293
1510.25295051487,0.566829879043978
1513.39127627226,0.568098727853232
1516.52527242119,0.568406837949587
1519.65493896165,0.570302360900179
1522.78027589366,0.57105240726247
1525.90128321721,0.571667680117351
1529.01796093229,0.572736538592617
1533.16679627258,0.573460967794423
1536.27337156793,0.574141234767791
1539.37561725481,0.57483902873087
1542.47353333323,0.57502547497419
1545.5671198032,0.575636833002566
1548.6563766647,0.576130557856946
1551.74130391774,0.576737472871829
1554.82190156232,0.576962455818591
1558.92263014194,0.5780493533592
1561.99312536678,0.578244380826108
1565.05929098316,0.578243192044017
1568.12112699108,0.579016866655919
1571.17863339054,0.579604037434044
1574.23181018153,0.579274481223967
1577.28065736407,0.579812913065582
1580.32517493815,0.580073225443976
1584.37779675709,0.580429791669775
1587.41221191143,0.581081434360159
1590.4422974573,0.581648740730844
1593.46805339471,0.582125708451741
1596.48947972367,0.582998807816255
1599.50657644416,0.584876804626716
1602.5193435562,0.585010251903925
1606.52963142574,0.58617415417629
1609.53229611804,0.586641826091893
1612.53063120187,0.587513501493106
1615.52463667724,0.587999934764527
1618.51431254415,0.588781474506522
1621.4996588026,0.588849104565825
1624.48067545259,0.589395258258214
1627.45736249411,0.589476207235525
1631.41954360299,0.588645632109895
1634.38612822478,0.59035803253065
1637.3483832381,0.589461334763517
1640.30630864297,0.589769824508038
1643.25990443938,0.589765178488609
1646.20917062732,0.589500721245842
1649.15410720681,0.589197059203674
1652.09471417783,0.58908469381741
1656.00878852603,0.587596778106253
1658.93929307732,0.585486315717765
1661.86546802014,0.584856500990336
1664.7873133545,0.582057528861327
1667.7048290804,0.580586649077541
1670.61801519784,0.579886015982319
1673.52687170682,0.577137186694074
1676.43139860734,0.574594387679986
1680.29736619487,0.572164053527071
1683.19179067565,0.569180813575047
1686.08188554796,0.569500008511942
1688.96765081182,0.566880671707092
1691.84908646722,0.563866921501082
1694.72619251415,0.562604586406779
1697.59896895263,0.562897216743371
1701.42260259077,0.558422431765583
