***Scan Config Information***,,,,,,,***Reference Scan Information***,,,,,,,,
Scan Config Name:,FolHerbario,,,,,,Scan Config Name:,Local New Reference,,,,,,,
Scan Config Type:,Slew,Num Section:,1,,,,Scan Config Type:,Slew,Num Section:,1,,,,,
Section Config Type:,Column,,,,,,Section Config Type:,Column,,,,,,,
Start Wavelength (nm):,900,,,,,,Start Wavelength (nm):,900,,,,,,,
End Wavelength (nm):,1700,,,,,,End Wavelength (nm):,1700,,,,,,,
Pattern Width (nm):,7.03,,,,,,Pattern Width (nm):,7.03,,,,,,,
Exposure (ms):,0.635,,,,,,Exposure (ms):,0.635,,,,,,,
Digital Resolution:,228,,,,,,Digital Resolution:,228,,,,,,,
Num Repeats:,20,,,,,,Num Repeats:,20,,,,,,,
PGA Gain:,64,(FixedPGA),,,,,PGA Gain:,64,(AutoPGA),,,,,,
System Temp (C):,36.28,,,,,,System Temp (C):,35.46,,,,,,,
Humidity (%):,49.54,,,,,,Humidity (%):,50.89,,,,,,,
Lamp ADC:,3083,3085,851,854,,,Lamp ADC:,3083,3086,851,853,,,,
Data Date-Time:,2025/04/03T10:03:24,,,,,,Data Date-Time:,2025/04/03T09:55:32,,,,,,,
Total Measurement Time in sec:,6.4587563,,,,,,,,,,,,,,
,,,,,,,,,,,,,,,
***General Information***,,,,,,,***Calibration Coefficients***,,,,,,,,
Model Name:,NIR-S-G1,,,,,,Shift Vector Coefficients:,-2.27453457587495,0.0384893477179632,-0.000120883834660424,,,,,
Serial Number:,C23R004,(95UB125GC0VC23R004),,,,,Pixel to Wavelength Coefficients:,1773.06832862561,-0.918144602406657,-0.000240533803363975,,,,,
GUI Version:,3.13.1,Revision:,930,,,,Versions (Cal/Ref/Cfg):,1,3,1,,,,,
TIVA Version:,2.4.10,,,,,,***Lamp Usage ***,,,,,,,,
DLPC Version:,2.3.1,,,,,,Total Time(hh:mm:ss):,4min 7sec ,,,,,,,
UUID:,DE:67:0C:88:67:66:73:21,,,,,,***Device/Error/Activation Status***,,,,,,,,
Main Board Version:,F,,,,,,Device Status:,0x00000001,Activation Status:,Activated,,,,,
Detector Board Version:,C,,,,,,Error status:,0x00000000,Error Code:,0x00000000000000000000000000000000,,,,,
,,,,,,,,,Error Details:,Not found,,,,,
***Scan Data***,,,,,,,,,,,,,,,
Wavelength (nm),Reflectance (unitless)
900.860912737931,0.551037175697309
904.749703961815,0.552837850599679
909.9280239805,0.553391354383946
913.806712784643,0.552906895333098
917.681071980326,0.553647963557101
921.551101567548,0.554313330289634
925.41680154631,0.55566541526972
929.278171916611,0.555399135414073
933.135212678451,0.556360381224567
936.987923831831,0.557797701444235
942.118137089843,0.558467991473561
945.960745823482,0.559527646731327
949.79902494866,0.560243132047137
953.632974465377,0.561138809491268
957.462594373634,0.562416030643455
961.287884673431,0.562250446714169
965.108845364766,0.562540645422659
970.196724673387,0.56425241701682
974.007582944981,0.564128395747933
977.814111608115,0.564960083094798
981.616310662789,0.564638559326027
985.414180109002,0.564671240893403
989.207719946754,0.565074168612919
992.996930176046,0.565696137872832
996.781810796877,0.565815070516538
1001.82158334482,0.565487346949291
1005.59636154591,0.566122930739478
1009.36681013854,0.5669813781671
1013.13292912271,0.566940081794895
1016.89471849842,0.567790015004265
1020.65217826567,0.567625872521914
1024.40530842446,0.567853711426532
1028.15410897478,0.568538615746697
1033.14577476206,0.568380868209632
1036.88447289264,0.568850257816763
1040.61884141477,0.569270154419486
1044.34888032843,0.570134304947389
1048.07458963364,0.569280739420261
1051.79596933038,0.570241011101005
1055.51301941866,0.570128979228597
1059.22573989848,0.570650088106272
1064.16929892509,0.570184660059027
1067.87191698517,0.570689637385877
1071.57020543679,0.570942029433143
1075.26416427995,0.571105561693686
1078.95379351464,0.571148672718562
1082.63909314088,0.57071075633541
1086.32006315866,0.571523294293223
1091.22128823587,0.571364374639793
1094.89215583391,0.57127285309418
1098.55869382348,0.571021875639007
1102.2209022046,0.571406043641955
1105.87878097725,0.571383017849178
1109.53233014145,0.570829686186906
1113.18154969718,0.570596514603354
1116.82643964446,0.570532981288202
1121.67955796099,0.570483460559796
1125.31434548853,0.569777659282847
1128.9448034076,0.570196823976739
1132.57093171821,0.569565177209926
1136.19273042036,0.569133619693563
1139.81019951405,0.568125797009701
1143.42333899928,0.567656169893203
1147.03214887605,0.567237049958985
1151.83716043191,0.56646762624356
1155.43586788894,0.565904009225014
1159.03024573751,0.564909374645824
1162.62029397761,0.564293293974912
1166.20601260926,0.563316825579484
1169.78740163244,0.562575590797288
1173.36446104717,0.56216446298094
1176.93719085343,0.561637766633411
1181.69409564862,0.560522931283448
1185.25672303515,0.560171821864983
1188.81502081321,0.559943652901876
1192.36898898281,0.559797977224671
1195.91862754395,0.559036546733592
1199.46393649663,0.559026334430926
1203.00491584085,0.558736719644462
1206.54156557661,0.559462391275573
1211.25036361113,0.559634416078739
1214.77691092715,0.560425897660082
1218.29912863471,0.561144312209816
1221.8170167338,0.562565951969572
1225.33057522444,0.563213467048711
1228.83980410662,0.563990729005071
1232.34470338033,0.56474370147139
1237.01116746546,0.565598987739818
1240.50596431943,0.566188092275426
1243.99643156495,0.566991232622293
1247.482569202,0.567229299449175
1250.96437723059,0.567340424821544
1254.44185565073,0.567966032506384
1257.9150044624,0.568267206467151
1261.38382366561,0.568613730635959
1266.00218099006,0.568878994445232
1269.46089777353,0.569017230538315
1272.91528494854,0.569270746903616
1276.36534251509,0.569317850076227
1279.81107047318,0.569331681635181
1283.2524688228,0.569953470270483
1286.68953756397,0.570102221950174
1290.12227669668,0.570137129773967
1294.69252726046,0.570364049024058
1298.11516397342,0.570767410359431
1301.53347107793,0.570578951859985
1304.94744857397,0.570773864867196
1308.35709646156,0.570727281854888
1311.76241474068,0.570519542336062
1315.16340341134,0.57037324575922
1318.56006247354,0.569900245255676
1323.08220627665,0.569620613871049
1326.46876291911,0.569290822421782
1329.85098995311,0.568839215844603
1333.22888737865,0.568064468627833
1336.60245519573,0.567515988658806
1339.97169340435,0.566796218637396
1343.33660200451,0.565845639991942
1347.81641185822,0.563761493105929
1351.17121803864,0.562916719140744
1354.52169461059,0.561697079587979
1357.86784157409,0.560727902107212
1361.20965892912,0.559368157989647
1364.5471466757,0.558382483609465
1367.88030481381,0.557279750816869
1371.20913334347,0.556423665266029
1375.64083643651,0.554677787878043
1378.95956254642,0.553549203618355
1382.27395904787,0.552567778806615
1385.58402594086,0.551446339218056
1388.88976322539,0.549227370841823
1392.19117090146,0.547400860653965
1395.48824896907,0.544748231003352
1398.78099742822,0.541778117272362
1403.16459376059,0.536911928403739
1406.4472398,0.532625653207896
1409.72555623094,0.527377267627014
1412.99954305343,0.522674797541739
1416.26920026746,0.517534942316921
1419.53452787302,0.51279488814165
1422.79552587013,0.508035981013709
1426.05219425877,0.50431044798345
1430.38768383047,0.500010657288253
1433.63424979937,0.497173130273302
1436.87648615981,0.495634429911834
1440.11439291179,0.493917196941769
1443.34797005532,0.492665437218577
1446.57721759038,0.491730354903369
1449.80213551698,0.491703193907981
1453.02272383511,0.490986043122329
1457.31010664614,0.491283503443138
1460.52059254454,0.490877694334026
1463.72674883448,0.491234151062395
1466.92857551595,0.491385288239983
1470.12607258897,0.491685714951727
1473.31924005352,0.49222057272229
1476.50807790962,0.492479933573208
1480.75312677125,0.493435320484588
1483.93186220761,0.494374413782371
1487.1062680355,0.495366835149666
1490.27634425493,0.495990535220229
1493.44209086591,0.496435126157083
1496.60350786842,0.497544744139148
1499.76059526247,0.498542929871969
1502.91335304806,0.499193947142828
1507.11029514902,0.500993579831883
1510.25295051487,0.502185876358057
1513.39127627226,0.502902475614385
1516.52527242119,0.50355327785887
1519.65493896165,0.504605887793322
1522.78027589366,0.505734758677442
1525.90128321721,0.506591839811069
1529.01796093229,0.507054843129566
1533.16679627258,0.507677510662985
1536.27337156793,0.508233928264833
1539.37561725481,0.508355533626615
1542.47353333323,0.509252559709774
1545.5671198032,0.509173390186669
1548.6563766647,0.509899089802468
1551.74130391774,0.510227537933225
1554.82190156232,0.510389286160101
1558.92263014194,0.510703581351594
1561.99312536678,0.510987889382518
1565.05929098316,0.511115392679651
1568.12112699108,0.511224774302718
1571.17863339054,0.511768738126481
1574.23181018153,0.512027031614768
1577.28065736407,0.512655789827676
1580.32517493815,0.513009799967569
1584.37779675709,0.513499820429942
1587.41221191143,0.514444842594697
1590.4422974573,0.514016231434015
1593.46805339471,0.514853881831199
1596.48947972367,0.516332979623509
1599.50657644416,0.516936305336502
1602.5193435562,0.518468927162174
1606.52963142574,0.519554837714941
1609.53229611804,0.519739891802863
1612.53063120187,0.520454654198055
1615.52463667724,0.52151119815178
1618.51431254415,0.521216470799318
1621.4996588026,0.522522626423973
1624.48067545259,0.524190032122868
1627.45736249411,0.52329046208838
1631.41954360299,0.523941801881312
1634.38612822478,0.524867198092631
1637.3483832381,0.524555717075507
1640.30630864297,0.525546809999408
1643.25990443938,0.524860211810082
1646.20917062732,0.524846388319957
1649.15410720681,0.524149206640936
1652.09471417783,0.524155327022
1656.00878852603,0.522982333449889
1658.93929307732,0.522922760076842
1661.86546802014,0.52109874775738
1664.7873133545,0.521554474207955
1667.7048290804,0.520926090828139
1670.61801519784,0.521886236176613
1673.52687170682,0.5212931320898
1676.43139860734,0.522173952987807
1680.29736619487,0.520995851906885
1683.19179067565,0.5226340378198
1686.08188554796,0.526334295080611
1688.96765081182,0.52081444134112
1691.84908646722,0.522107496463932
1694.72619251415,0.516195533858891
1697.59896895263,0.513112709832134
1701.42260259077,0.512193416021636
