***Scan Config Information***,,,,,,,***Reference Scan Information***,,,,,,,,
Scan Config Name:,FolHerbario,,,,,,Scan Config Name:,Local New Reference,,,,,,,
Scan Config Type:,Slew,Num Section:,1,,,,Scan Config Type:,Slew,Num Section:,1,,,,,
Section Config Type:,Column,,,,,,Section Config Type:,Column,,,,,,,
Start Wavelength (nm):,900,,,,,,Start Wavelength (nm):,900,,,,,,,
End Wavelength (nm):,1700,,,,,,End Wavelength (nm):,1700,,,,,,,
Pattern Width (nm):,7.03,,,,,,Pattern Width (nm):,7.03,,,,,,,
Exposure (ms):,0.635,,,,,,Exposure (ms):,0.635,,,,,,,
Digital Resolution:,228,,,,,,Digital Resolution:,228,,,,,,,
Num Repeats:,20,,,,,,Num Repeats:,20,,,,,,,
PGA Gain:,64,(FixedPGA),,,,,PGA Gain:,64,(AutoPGA),,,,,,
System Temp (C):,40.47,,,,,,System Temp (C):,40.17,,,,,,,
Humidity (%):,48.27,,,,,,Humidity (%):,49.03,,,,,,,
Lamp ADC:,3066,3082,829,851,,,Lamp ADC:,3066,3081,829,851,,,,
Data Date-Time:,2025/04/03T10:28:02,,,,,,Data Date-Time:,2025/04/03T10:26:20,,,,,,,
Total Measurement Time in sec:,6.5158753,,,,,,,,,,,,,,
,,,,,,,,,,,,,,,
***General Information***,,,,,,,***Calibration Coefficients***,,,,,,,,
Model Name:,NIR-S-G1,,,,,,Shift Vector Coefficients:,0.392694521123758,0.0064508848494657,-3.36963000867986E-05,,,,,
Serial Number:,C23R003,(95UB125GC0VC23R003),,,,,Pixel to Wavelength Coefficients:,1737.96619343203,-0.927679554192883,-0.000240514673521399,,,,,
GUI Version:,3.13.1,Revision:,930,,,,Versions (Cal/Ref/Cfg):,1,3,1,,,,,
TIVA Version:,2.4.10,,,,,,***Lamp Usage ***,,,,,,,,
DLPC Version:,2.3.1,,,,,,Total Time(hh:mm:ss):,7min 39sec ,,,,,,,
UUID:,DE:67:0C:88:67:47:5F:21,,,,,,***Device/Error/Activation Status***,,,,,,,,
Main Board Version:,F,,,,,,Device Status:,0x00000001,Activation Status:,Activated,,,,,
Detector Board Version:,C,,,,,,Error status:,0x00000000,Error Code:,0x00000000000000000000000000000000,,,,,
,,,,,,,,,Error Details:,Not found,,,,,
***Scan Data***,,,,,,,,,,,,,,,
Wavelength (nm),Reflectance (unitless)
901.114121469303,0.408643158298199
904.983805426851,0.413607131769193
908.849160120276,0.416989377492889
913.996231967317,0.42260290483939
917.851485044454,0.426778300773386
921.702408857468,0.429440265851524
925.549003406358,0.433744983729461
929.391268691125,0.43881961762261
933.229204711769,0.44232531688999
937.062811468289,0.445820699370378
942.16755273279,0.450928566729487
945.991057873023,0.455373788639548
949.810233749132,0.458731422052037
953.625080361117,0.46284587028771
957.435597708979,0.466040640394089
961.241785792718,0.468265555826476
966.309968826844,0.471711222961199
970.106055294295,0.473383449783531
973.897812497622,0.476134282913267
977.685240436826,0.476867313066903
981.468339111907,0.478344450734733
985.247108522864,0.478934269319809
989.021548669698,0.480455270786712
994.047401121285,0.481374324422465
997.811739651831,0.482004176917305
1001.57174891825,0.482342536142927
1005.32742892055,0.483582733746883
1009.07877965873,0.48390434872194
1012.82580113278,0.484655113782896
1016.56849334271,0.484010733925309
1021.55201521176,0.485262678062678
1025.2846058054,0.484855190159866
1029.01286713492,0.485022770324771
1032.73679920031,0.484940269326044
1036.45640200158,0.484821492115165
1040.17167553873,0.483961712615349
1045.1186391774,0.484463642380921
1048.82381109826,0.484030723374986
1052.524653755,0.482639278589245
1056.22116714761,0.482791477771278
1059.9133512761,0.482549407069581
1063.60120614046,0.481839416457218
1067.28473174071,0.480860270772112
1072.18936479684,0.480058940430329
1075.86278878079,0.479042550553718
1079.53188350063,0.478111895952461
1083.19664895633,0.479085992826677
1086.85708514792,0.477594509805663
1090.51319207538,0.477835492463358
1094.16496973872,0.477203795026202
1099.02727221231,0.477252265111356
1102.66894825936,0.477497054187644
1106.30629504229,0.477208761691652
1109.93931256109,0.476755927487681
1113.56800081577,0.476772969359812
1117.19235980633,0.476652156283053
1120.81238953276,0.475564475664827
1125.63236142381,0.474165640778982
1129.24228953396,0.473193483014464
1132.84788837998,0.472861488660926
1136.44915796188,0.472303170559477
1140.04609827965,0.471334455159053
1143.6387093333,0.470580129530109
1148.42212299398,0.469201170648993
1152.00463243134,0.468658961383959
1155.58281260458,0.467319979710941
1159.1566635137,0.466465584774509
1162.72618515869,0.466031252153878
1166.29137753957,0.464748061070192
1169.85224065631,0.464350122997192
1174.59332373445,0.463654654020173
1178.14408523491,0.463577940573346
1181.69051747124,0.462795920416138
1185.23262044346,0.462870341808781
1188.77039415154,0.462626577744082
1192.30383859551,0.46287376723015
1195.83295377535,0.4632292232674
1200.53170627095,0.463354827305952
1204.0507198345,0.463790560093808
1207.56540413393,0.464071694740924
1211.07575916924,0.464552155090034
1214.58178494043,0.465617185258066
1218.08348144749,0.466902663469639
1222.74567571271,0.467906244823588
1226.23727060348,0.468997859205338
1229.72453623013,0.46985230343003
1233.20747259266,0.470593857770748
1236.68607969106,0.470854989210054
1240.16035752534,0.470953525641026
1243.63030609549,0.471992115393398
1248.25016977818,0.473099349273389
1251.71001673204,0.473380695835199
1255.16553442179,0.474002864550692
1258.61672284741,0.474651979583544
1262.06358200891,0.474069710790777
1265.50611190628,0.474855629593991
1268.94431253953,0.47518865859886
1273.52184563968,0.475731529164266
1276.94994465664,0.475546601098836
1280.37371440948,0.475973832730682
1283.79315489819,0.47521509133693
1287.20826612279,0.476012281836653
1290.61904808326,0.475913784710354
1295.16002295302,0.476118150411632
1298.56070329721,0.476472745833836
1301.95705437726,0.476427291092793
1305.3490761932,0.476654788293723
1308.73676874501,0.476349387090413
1312.1201320327,0.476329308820391
1315.49916605626,0.476235576111285
1319.99781034349,0.476079240014153
1323.36674275077,0.475944540156664
1326.73134589392,0.475572316771769
1330.09161977295,0.475285890162332
1333.44756438786,0.475216789609334
1336.79917973864,0.474762494836844
1340.1464658253,0.474197535583674
1344.60277952999,0.4735943373437
1347.93996400036,0.472481721135802
1351.27281920661,0.472275807361353
1354.60134514873,0.471184318483176
1357.92554182674,0.470703479112672
1361.24540924061,0.470285568286787
1364.56094739037,0.469793593389099
1368.97493051252,0.469089920829986
1372.28036704598,0.468776658709008
1375.58147431533,0.468193418009257
1378.87825232055,0.467428472087565
1382.17070106165,0.466637762960888
1385.45882053862,0.465698693683563
1389.83624543039,0.463601584934647
1393.11426329108,0.462044025504735
1396.38795188764,0.46020164888959
1399.65731122008,0.457784349113011
1402.92234128839,0.456057254428789
1406.18304209259,0.453592101762434
1409.43941363266,0.45082615186511
1413.77450794189,0.446926523908036
1417.02077786567,0.444126353057256
1420.26271852533,0.441314513071482
1423.50032992086,0.43860214819495
1426.73361205227,0.436188788332195
1429.96256491956,0.434214255091883
1433.18718852272,0.432165171401954
1437.47995224942,0.431084804809703
1440.69447423629,0.429923784264292
1443.90466695905,0.429202920116945
1447.11053041767,0.428699266997027
1450.31206461218,0.428380411164967
1453.50926954256,0.428052171765868
1457.76547503888,0.427806791788666
1460.95257835298,0.427936367705959
1464.13535240295,0.428144742859611
1467.31379718879,0.428322545176188
1470.48791271052,0.428667041509582
1473.65769896812,0.429242031815049
1476.8231559616,0.429340355207449
1481.03703087538,0.430558446544459
1484.19238625257,0.431169872791256
1487.34341236563,0.432072484441867
1490.49010921458,0.433019442270136
1493.63247679939,0.433753191190799
1496.77051512009,0.435378542774182
1499.90422417666,0.436546455344733
1504.0757685079,0.438813541433038
1507.19937594819,0.439791633285264
1510.31865412435,0.441711634696284
1513.43360303639,0.443770499091969
1516.5442226843,0.445402358618108
1519.65051306809,0.447453889827146
1522.75247418776,0.449656559185707
1526.88168793646,0.452335723555897
1529.97354743984,0.455123278604129
1533.0610776791,0.456668895671372
1536.14427865423,0.458561575606933
1539.22315036524,0.46084053901869
1542.29769281213,0.462917220477473
1546.39034833045,0.466075347109394
1549.45478916105,0.468807873324417
1552.51490072752,0.471077747587993
1555.57068302988,0.472647373381196
1558.6221360681,0.474996868128783
1561.66925984221,0.477619599258245
1564.71205435219,0.479533097019706
1568.76237928798,0.482736623136484
1571.79507218167,0.484805345043322
1574.82343581124,0.487497766596003
1577.84747017669,0.490507377109952
1580.86717527801,0.492471146340909
1583.88255111521,0.4940973497566
1586.89359768829,0.497842138309794
1590.90159204153,0.501082568053978
1593.90253699832,0.503868067314199
1596.89915269099,0.507089675830585
1599.89143911953,0.509697687258813
1602.87939628395,0.512947660074229
1605.86302418424,0.515993798991244
1609.83446030711,0.520077932266357
1612.80798659112,0.523153992452428
1615.777183611,0.525043794868272
1618.74205136676,0.527272727272727
1621.7025898584,0.530087299558023
1624.65879908592,0.532519253085769
1627.61067904931,0.533661235782355
1631.53978458964,0.536900526540487
1634.48156293674,0.540336282888096
1637.41901201972,0.541619339817656
1640.35213183857,0.543648521302354
1643.28092239331,0.545844857228285
1646.20538368392,0.54639569809127
1649.1255157104,0.547983135424152
1653.01229066819,0.550506627159449
1655.92232107839,0.550566122814832
1658.82802222446,0.551178526540521
1661.72939410641,0.553404419012815
1664.62643672424,0.552115537496688
1667.51915007795,0.552563974243486
1671.36936680536,0.551176931560922
1674.25197854278,0.552220530289948
1677.13026101607,0.550388330308686
1680.00421422524,0.548066044067732
1682.87383817029,0.547090601405884
1685.73913285121,0.544932027189124
1688.60009826801,0.5425040441873
1692.40798441288,0.540799680997607
1695.25884821339,0.536485361009674
1698.10538274978,0.533225119204626
1700.94758802205,0.540453561116458
