***Scan Config Information***,,,,,,,***Reference Scan Information***,,,,,,,,
Scan Config Name:,FolHerbario,,,,,,Scan Config Name:,Local New Reference,,,,,,,
Scan Config Type:,Slew,Num Section:,1,,,,Scan Config Type:,Slew,Num Section:,1,,,,,
Section Config Type:,Column,,,,,,Section Config Type:,Column,,,,,,,
Start Wavelength (nm):,900,,,,,,Start Wavelength (nm):,900,,,,,,,
End Wavelength (nm):,1700,,,,,,End Wavelength (nm):,1700,,,,,,,
Pattern Width (nm):,7.03,,,,,,Pattern Width (nm):,7.03,,,,,,,
Exposure (ms):,0.635,,,,,,Exposure (ms):,0.635,,,,,,,
Digital Resolution:,228,,,,,,Digital Resolution:,228,,,,,,,
Num Repeats:,20,,,,,,Num Repeats:,20,,,,,,,
PGA Gain:,64,(FixedPGA),,,,,PGA Gain:,64,(AutoPGA),,,,,,
System Temp (C):,42.71,,,,,,System Temp (C):,42.45,,,,,,,
Humidity (%):,41.84,,,,,,Humidity (%):,43.11,,,,,,,
Lamp ADC:,3066,3081,829,851,,,Lamp ADC:,3066,3081,829,852,,,,
Data Date-Time:,2025/04/03T11:28:12,,,,,,Data Date-Time:,2025/04/03T11:26:08,,,,,,,
Total Measurement Time in sec:,6.4957342,,,,,,,,,,,,,,
,,,,,,,,,,,,,,,
***General Information***,,,,,,,***Calibration Coefficients***,,,,,,,,
Model Name:,NIR-S-G1,,,,,,Shift Vector Coefficients:,0.392694521123758,0.0064508848494657,-3.36963000867986E-05,,,,,
Serial Number:,C23R003,(95UB125GC0VC23R003),,,,,Pixel to Wavelength Coefficients:,1737.96619343203,-0.927679554192883,-0.000240514673521399,,,,,
GUI Version:,3.13.1,Revision:,930,,,,Versions (Cal/Ref/Cfg):,1,3,1,,,,,
TIVA Version:,2.4.10,,,,,,***Lamp Usage ***,,,,,,,,
DLPC Version:,2.3.1,,,,,,Total Time(hh:mm:ss):,14min 41sec ,,,,,,,
UUID:,DE:67:0C:88:67:47:5F:21,,,,,,***Device/Error/Activation Status***,,,,,,,,
Main Board Version:,F,,,,,,Device Status:,0x00000001,Activation Status:,Activated,,,,,
Detector Board Version:,C,,,,,,Error status:,0x00000000,Error Code:,0x00000000000000000000000000000000,,,,,
,,,,,,,,,Error Details:,Not found,,,,,
***Scan Data***,,,,,,,,,,,,,,,
Wavelength (nm),Reflectance (unitless)
901.114121469303,0.540889992360581
904.983805426851,0.54383109703783
908.849160120276,0.545264043692404
913.996231967317,0.548547892806855
917.851485044454,0.546469278316187
921.702408857468,0.549304999173375
925.549003406358,0.550557517833645
929.391268691125,0.550612945108693
933.229204711769,0.552482896547159
937.062811468289,0.552365075877992
942.16755273279,0.554351237923992
945.991057873023,0.555775219060033
949.810233749132,0.556234860632527
953.625080361117,0.5577689886711
957.435597708979,0.557982466099797
961.241785792718,0.557911292306611
966.309968826844,0.558881997895786
970.106055294295,0.559066955610821
973.897812497622,0.560446595676025
977.685240436826,0.560111969218498
981.468339111907,0.560390679066537
985.247108522864,0.561273322751881
989.021548669698,0.561360533290499
994.047401121285,0.561992319329687
997.811739651831,0.562704622064921
1001.57174891825,0.563466195461599
1005.32742892055,0.563025938308149
1009.07877965873,0.563520749513266
1012.82580113278,0.564125166269734
1016.56849334271,0.564507702294065
1021.55201521176,0.564616577488126
1025.2846058054,0.565684847634331
1029.01286713492,0.565537642092178
1032.73679920031,0.5659063630908
1036.45640200158,0.565860845565631
1040.17167553873,0.566472948948211
1045.1186391774,0.566751328477975
1048.82381109826,0.566776874924625
1052.524653755,0.56664239721508
1056.22116714761,0.566935010082726
1059.9133512761,0.567341043079793
1063.60120614046,0.567805175864057
1067.28473174071,0.566832258603295
1072.18936479684,0.568028304198201
1075.86278878079,0.56794080165913
1079.53188350063,0.567740729032632
1083.19664895633,0.568066046410632
1086.85708514792,0.568164782447662
1090.51319207538,0.569125341156755
1094.16496973872,0.567953398875296
1099.02727221231,0.568651874862295
1102.66894825936,0.568983070347385
1106.30629504229,0.56900754648479
1109.93931256109,0.569333405068058
1113.56800081577,0.568740775332624
1117.19235980633,0.569650712726777
1120.81238953276,0.569378680345128
1125.63236142381,0.568768689145197
1129.24228953396,0.569220688962203
1132.84788837998,0.569142635894511
1136.44915796188,0.568731725789063
1140.04609827965,0.569014084507042
1143.6387093333,0.56870195462043
1148.42212299398,0.568874534262109
1152.00463243134,0.568291811087504
1155.58281260458,0.56747841562635
1159.1566635137,0.567235329082353
1162.72618515869,0.567290931819916
1166.29137753957,0.566940642810065
1169.85224065631,0.5670230712982
1174.59332373445,0.565977730424309
1178.14408523491,0.566379921211997
1181.69051747124,0.565810749628097
1185.23262044346,0.56561849529609
1188.77039415154,0.565704530172002
1192.30383859551,0.565414135664671
1195.83295377535,0.564725341996004
1200.53170627095,0.564934818857056
1204.0507198345,0.565020851672722
1207.56540413393,0.565137242612495
1211.07575916924,0.565324195070827
1214.58178494043,0.565616710172551
1218.08348144749,0.565684582643803
1222.74567571271,0.566205118698476
1226.23727060348,0.566731917254523
1229.72453623013,0.566851072011114
1233.20747259266,0.566916110756855
1236.68607969106,0.567305934140994
1240.16035752534,0.567227203116404
1243.63030609549,0.567534786563795
1248.25016977818,0.567948421359672
1251.71001673204,0.568297391568307
1255.16553442179,0.568097979076509
1258.61672284741,0.568259468315789
1262.06358200891,0.56780853031804
1265.50611190628,0.568167897139016
1268.94431253953,0.568214875211696
1273.52184563968,0.568262632812625
1276.94994465664,0.568192302318899
1280.37371440948,0.568263803142771
1283.79315489819,0.568292876542262
1287.20826612279,0.568375747534108
1290.61904808326,0.568384546164927
1295.16002295302,0.568178620130327
1298.56070329721,0.568125966819828
1301.95705437726,0.568178176574267
1305.3490761932,0.568297041750108
1308.73676874501,0.568371472814866
1312.1201320327,0.568223860073564
1315.49916605626,0.567869993727369
1319.99781034349,0.56774511558952
1323.36674275077,0.567549619638427
1326.73134589392,0.56736445982489
1330.09161977295,0.567219222537116
1333.44756438786,0.566626199195867
1336.79917973864,0.566150154701017
1340.1464658253,0.565854381175708
1344.60277952999,0.565338220855545
1347.93996400036,0.564446069264907
1351.27281920661,0.564174141426553
1354.60134514873,0.563549049462964
1357.92554182674,0.563671331798017
1361.24540924061,0.562457463130375
1364.56094739037,0.562084923128351
1368.97493051252,0.561755776823494
1372.28036704598,0.561124063335282
1375.58147431533,0.560921620566291
1378.87825232055,0.559859178309954
1382.17070106165,0.559277326638247
1385.45882053862,0.558127081301086
1389.83624543039,0.556580794599482
1393.11426329108,0.555541377853148
1396.38795188764,0.553585177354847
1399.65731122008,0.552086927978049
1402.92234128839,0.54984784690622
1406.18304209259,0.547674787545128
1409.43941363266,0.545303445164961
1413.77450794189,0.541084116351082
1417.02077786567,0.539209164125646
1420.26271852533,0.536214514685072
1423.50032992086,0.533728058457828
1426.73361205227,0.531332620030525
1429.96256491956,0.530078104122459
1433.18718852272,0.528127122685821
1437.47995224942,0.526336060233114
1440.69447423629,0.525746336744358
1443.90466695905,0.525332393377372
1447.11053041767,0.524578583295663
1450.31206461218,0.524572609102326
1453.50926954256,0.523948589601689
1457.76547503888,0.523596033441232
1460.95257835298,0.523560193997395
1464.13535240295,0.52343437574982
1467.31379718879,0.523505944057506
1470.48791271052,0.523295440076575
1473.65769896812,0.523593428105196
1476.8231559616,0.523488180381452
1481.03703087538,0.523272058823529
1484.19238625257,0.523632127146391
1487.34341236563,0.523976123569252
1490.49010921458,0.524384594244435
1493.63247679939,0.523854653337306
1496.77051512009,0.524568882030628
1499.90422417666,0.524957524438603
1504.0757685079,0.525441509607157
1507.19937594819,0.525678546023734
1510.31865412435,0.525974821344976
1513.43360303639,0.527029919611854
1516.5442226843,0.527222219351861
1519.65051306809,0.528210574779997
1522.75247418776,0.528653398993873
1526.88168793646,0.528979962225491
1529.97354743984,0.530102336428954
1533.0610776791,0.530136134594148
1536.14427865423,0.530259083567502
1539.22315036524,0.530866915682442
1542.29769281213,0.531830378179241
1546.39034833045,0.532175939759756
1549.45478916105,0.532966497857421
1552.51490072752,0.533223582970655
1555.57068302988,0.533196252083579
1558.6221360681,0.533298867119876
1561.66925984221,0.533428846406229
1564.71205435219,0.533483802265071
1568.76237928798,0.534490280450227
1571.79507218167,0.534230158562641
1574.82343581124,0.53417385693348
1577.84747017669,0.534721455811843
1580.86717527801,0.535023114376615
1583.88255111521,0.534653032911132
1586.89359768829,0.535066780709257
1590.90159204153,0.535352849283434
1593.90253699832,0.535769854946379
1596.89915269099,0.536079616888015
1599.89143911953,0.53679492406931
1602.87939628395,0.536865824966034
1605.86302418424,0.53848964639505
1609.83446030711,0.538154417863044
1612.80798659112,0.538914154360085
1615.777183611,0.538306760497206
1618.74205136676,0.53821432581116
1621.7025898584,0.539837622127425
1624.65879908592,0.540114950695351
1627.61067904931,0.538470140045654
1631.53978458964,0.54040373484986
1634.48156293674,0.538795905779586
1637.41901201972,0.541494618268516
1640.35213183857,0.540100295353755
1643.28092239331,0.539862724392819
1646.20538368392,0.539251358460859
1649.1255157104,0.538828110605962
1653.01229066819,0.538050441084959
1655.92232107839,0.537589547489407
1658.82802222446,0.54011932578662
1661.72939410641,0.538476104812176
1664.62643672424,0.537703717949513
1667.51915007795,0.535896899397141
1671.36936680536,0.534977711319264
1674.25197854278,0.534070592850192
1677.13026101607,0.532595989569283
1680.00421422524,0.535082262790174
1682.87383817029,0.531852358856154
1685.73913285121,0.529686495914808
1688.60009826801,0.527525422832282
1692.40798441288,0.525888654439214
1695.25884821339,0.52410998552822
1698.10538274978,0.529962461087713
1700.94758802205,0.525732511622878
