***Scan Config Information***,,,,,,,***Reference Scan Information***,,,,,,,,
Scan Config Name:,FolHerbario,,,,,,Scan Config Name:,Local New Reference,,,,,,,
Scan Config Type:,Slew,Num Section:,1,,,,Scan Config Type:,Slew,Num Section:,1,,,,,
Section Config Type:,Column,,,,,,Section Config Type:,Column,,,,,,,
Start Wavelength (nm):,900,,,,,,Start Wavelength (nm):,900,,,,,,,
End Wavelength (nm):,1700,,,,,,End Wavelength (nm):,1700,,,,,,,
Pattern Width (nm):,7.03,,,,,,Pattern Width (nm):,7.03,,,,,,,
Exposure (ms):,0.635,,,,,,Exposure (ms):,0.635,,,,,,,
Digital Resolution:,228,,,,,,Digital Resolution:,228,,,,,,,
Num Repeats:,20,,,,,,Num Repeats:,20,,,,,,,
PGA Gain:,64,(FixedPGA),,,,,PGA Gain:,64,(AutoPGA),,,,,,
System Temp (C):,36.04,,,,,,System Temp (C):,34.34,,,,,,,
Humidity (%):,50.36,,,,,,Humidity (%):,53.69,,,,,,,
Lamp ADC:,3077,3078,831,849,,,Lamp ADC:,3077,3079,831,849,,,,
Data Date-Time:,2025/04/03T10:08:31,,,,,,Data Date-Time:,2025/04/03T09:56:42,,,,,,,
Total Measurement Time in sec:,6.5168365,,,,,,,,,,,,,,
,,,,,,,,,,,,,,,
***General Information***,,,,,,,***Calibration Coefficients***,,,,,,,,
Model Name:,NIR-S-G1,,,,,,Shift Vector Coefficients:,-5.74589567087503,0.0468271937173058,-9.53581739805986E-05,,,,,
Serial Number:,C23R002,(95UB125GC0VC23R002),,,,,Pixel to Wavelength Coefficients:,1756.1983651918,-0.919335509971685,-0.000241825006214287,,,,,
GUI Version:,3.13.1,Revision:,930,,,,Versions (Cal/Ref/Cfg):,1,3,1,,,,,
TIVA Version:,2.4.10,,,,,,***Lamp Usage ***,,,,,,,,
DLPC Version:,2.3.1,,,,,,Total Time(hh:mm:ss):,4min 16sec ,,,,,,,
UUID:,DE:67:0C:88:67:76:74:21,,,,,,***Device/Error/Activation Status***,,,,,,,,
Main Board Version:,F,,,,,,Device Status:,0x00000001,Activation Status:,Activated,,,,,
Detector Board Version:,C,,,,,,Error status:,0x00000000,Error Code:,0x00000000000000000000000000000000,,,,,
,,,,,,,,,Error Details:,Not found,,,,,
***Scan Data***,,,,,,,,,,,,,,,
Wavelength (nm),Reflectance (unitless)
901.701099874012,0.378405773150443
905.577788882674,0.383363251893997
909.450125041225,0.388548306843039
913.318108349663,0.392748513756394
917.18173880799,0.396284319419808
921.041016416205,0.402133167357447
926.179948793651,0.4060283042893
930.029069751605,0.411708896381306
933.873837859447,0.414604889005711
937.714253117177,0.420725889718087
941.550315524795,0.426400366750646
945.382025082302,0.431643354635157
949.209381789697,0.434947483788474
954.305752966049,0.442160498972051
958.122953023182,0.44594095693266
961.935800230204,0.450908013762618
965.744294587114,0.453974816050975
969.548436093912,0.458183262222715
973.348224750598,0.461948176583493
977.143660557173,0.466300079934647
982.197470532431,0.471137097369033
985.982749688744,0.474719967543745
989.763675994946,0.478525369705515
993.540249451036,0.481556047453626
997.312470057013,0.484662286961632
1001.08033781288,0.488185953022123
1004.84385271863,0.491791706131653
1009.8551014928,0.496713778718635
1013.60845974829,0.499596764279216
1017.35746515367,0.502965368386256
1021.10211770894,0.50605161766017
1024.8424174141,0.508909414974698
1028.57836426914,0.511482413072906
1032.30995827408,0.515100698842181
1037.27864584715,0.518836222765741
1041.00008320182,0.521453338871285
1044.71716770638,0.523593230414832
1048.42989936083,0.52660968449906
1052.13827816517,0.529129964456807
1055.8423041194,0.531777899268148
1059.54197722351,0.533505425952116
1064.46810359549,0.537199824554991
1068.15762004934,0.539162200540516
1071.84278365308,0.541469533058499
1075.52359440671,0.542793122264405
1079.20005231022,0.544331441130562
1082.87215736363,0.545963494528851
1086.53990956692,0.5475722542005
1091.42347473781,0.549794676700047
1095.08107029084,0.551106530099098
1098.73431299376,0.552800097422665
1102.38320284657,0.553768720564881
1106.02773984926,0.555509616666328
1109.66792400185,0.556133647488846
1113.30375530432,0.557458313556578
1118.14475927411,0.559714549407097
1121.77043392632,0.560116419977495
1125.39175572842,0.56092108922116
1129.00872468041,0.56136621973945
1132.62134078229,0.562557833018972
1136.22960403405,0.563119657149696
1139.83351443571,0.563839591557107
1144.6319572044,0.565430179759531
1148.22571095579,0.565588440719399
1151.81511185707,0.566532935084216
1155.40015990824,0.567054719758855
1158.9808551093,0.56786782345473
1162.55719746024,0.568492227300432
1166.12918696107,0.568467435829982
1170.88506852868,0.569626677137586
1174.44690137925,0.56984087445786
1178.00438137971,0.570367348418915
1181.55750853005,0.570939717202442
1185.10628283029,0.571395406535762
1188.65070428041,0.571715405518578
1192.19077288043,0.572097284229412
1196.90409324693,0.57334502142058
1200.43400519669,0.574068860412933
1203.95956429632,0.57458180375368
1207.48077054585,0.575292208594516
1210.99762394527,0.576224730592655
1214.51012449457,0.577094502835149
1218.01827219376,0.577893164453056
1222.68903135918,0.579692699296403
1226.18702240811,0.580387081958157
1229.68066060693,0.581276023434909
1233.16994595564,0.5818824218922
1236.65487845423,0.582469862818697
1240.13545810271,0.583111121616411
1243.61168490109,0.584105482012964
1248.23988286541,0.584474148355025
1251.70595301352,0.585600058830684
1255.16767031152,0.585640315154568
1258.6250347594,0.58607357331357
1262.07804635718,0.586733405780398
1265.52670510484,0.58675241525026
1268.97101100239,0.587184630086546
1273.55664776562,0.587829815391429
1276.99079701291,0.588394826960614
1280.42059341009,0.588797097044548
1283.84603695715,0.588987892741522
1287.26712765411,0.589214066556526
1290.68386550095,0.589850158450319
1294.09625049768,0.590121616742085
1298.63932605982,0.590380880647575
1302.04155440629,0.590544639091687
1305.43942990264,0.591189998479821
1308.83295254889,0.591101581010371
1312.22212234502,0.591408135340216
1315.60693929105,0.591250994852143
1320.11325745224,0.591412756036308
1323.487917748,0.591036724361456
1326.85822519365,0.591205622678857
1330.22417978919,0.590929572305156
1333.58578153461,0.590802560843182
1336.94303042993,0.590395184570374
1340.29592647513,0.589959363667839
1344.75968343522,0.589026872420895
1348.10242283016,0.588652120717781
1351.44080937499,0.588100472369369
1354.77484306971,0.587440220820574
1358.10452391432,0.58675116599553
1361.42985190881,0.585943809500502
1364.75082705319,0.585516327769942
1369.17202281219,0.585214035396844
1372.48284130632,0.584758719716788
1375.78930695032,0.583821973722642
1379.09141974422,0.583298116266835
1382.38917968801,0.582610481567125
1385.68258678168,0.581765253292813
1388.97164102524,0.58071127410623
1393.35027558315,0.578356981622881
1396.62917317645,0.576009603018091
1399.90371791964,0.574373613636565
1403.17390981272,0.571452832866934
1406.43974885568,0.568703595339965
1409.70123504853,0.564771380619997
1412.95836839128,0.561086957071569
1417.29444174809,0.555104404685281
1420.54141844057,0.551447908660653
1423.78404228294,0.547698829917802
1427.0223132752,0.544064783475153
1430.25623141734,0.541562842998335
1433.48579670937,0.538921677593184
1436.71100915129,0.536833152439528
1441.00452130702,0.535121102425101
1444.21957709868,0.533878011885054
1447.43028004022,0.533204741709672
1450.63663013166,0.532483521551697
1453.83862737298,0.532528305185631
1457.0362717642,0.532126762235632
1460.2295633053,0.531988342665507
1464.48051425993,0.532255287399202
1467.66364915076,0.532126862980375
1470.84243119149,0.532591913824815
1474.01686038211,0.532523390995113
1477.18693672261,0.533790847491572
1480.35266021301,0.534036481053055
1483.51403085329,0.534991781386229
1487.72242060682,0.535668057740986
1490.87363459684,0.535855254991849
1494.02049573675,0.53670882906493
1497.16300402654,0.537427586671457
1500.30115946623,0.538115201920409
1503.4349620558,0.538795304091401
1506.56441179526,0.539614823975048
1510.7302403477,0.540804789605338
1513.8495334369,0.541182531305652
1516.96447367598,0.541230008204454
1520.07506106496,0.542618908059417
1523.18129560382,0.543244617367275
1526.28317729258,0.543348708745323
1529.38070613122,0.544069541419489
1533.50397348256,0.545352477356287
1536.59134567094,0.544949253206474
1539.67436500921,0.545429009530608
1542.75303149736,0.545573718761068
1545.82734513541,0.545894675113023
1548.89730592334,0.546042912538296
1551.96291386116,0.546141990259197
1556.04362001141,0.545864376815254
1559.09907129897,0.54656526411507
1562.15016973641,0.547013137702586
1565.19691532375,0.547535033196375
1568.23930806097,0.547719950554317
1571.27734794808,0.54741879839691
1574.31103498508,0.547962240229426
1578.34917993424,0.547984946715789
1581.37271032098,0.548266457906986
1584.39188785761,0.548130695884075
1587.40671254412,0.548690004893021
1590.41718438052,0.549318632393812
1593.42330336681,0.54904636920385
1596.42506950299,0.550469357249626
1600.42065325106,0.550255953101193
1603.41226273698,0.55131636983072
1606.39951937278,0.551525302940848
1609.38242315848,0.552730030468673
1612.36097409406,0.552634825254189
1615.33517217953,0.552676829749569
1618.30501741489,0.553824719543739
1622.25803996186,0.554192677729321
1625.21772854696,0.554068643373084
1628.17306428194,0.554880983112318
1631.12404716682,0.554726931804375
1634.07067720158,0.554467647138485
1637.01295438623,0.554492203902248
1639.95087872077,0.555511745512686
1643.86134006665,0.55604268907818
1646.78910775092,0.554305260674687
1649.71252258509,0.554632342738677
1652.63158456914,0.553763099127502
1655.54629370308,0.554441286039655
1658.45664998691,0.554068780952118
1661.36265342063,0.553589754708527
1665.23055356542,0.556590168696699
1668.12640034887,0.55873709425216
1671.01789428222,0.564062331564637
1673.90503536545,0.569107031018229
1676.78782359857,0.57406261054121
1679.66625898158,0.577707208108288
1682.54034151448,0.578472461438359
1686.36568045817,0.588802998360272
1689.22960634081,0.58684311679754
1692.08917937333,0.582444056396326
1694.94439955575,0.584207314747721
1697.79526688805,0.582745730083048
1700.64178137024,0.576142330903676
