***Scan Config Information***,,,,,,,***Reference Scan Information***,,,,,,,,
Scan Config Name:,FolHerbario,,,,,,Scan Config Name:,Local New Reference,,,,,,,
Scan Config Type:,Slew,Num Section:,1,,,,Scan Config Type:,Slew,Num Section:,1,,,,,
Section Config Type:,Column,,,,,,Section Config Type:,Column,,,,,,,
Start Wavelength (nm):,900,,,,,,Start Wavelength (nm):,900,,,,,,,
End Wavelength (nm):,1700,,,,,,End Wavelength (nm):,1700,,,,,,,
Pattern Width (nm):,7.03,,,,,,Pattern Width (nm):,7.03,,,,,,,
Exposure (ms):,0.635,,,,,,Exposure (ms):,0.635,,,,,,,
Digital Resolution:,228,,,,,,Digital Resolution:,228,,,,,,,
Num Repeats:,20,,,,,,Num Repeats:,20,,,,,,,
PGA Gain:,64,(FixedPGA),,,,,PGA Gain:,64,(AutoPGA),,,,,,
System Temp (C):,42.53,,,,,,System Temp (C):,42.99,,,,,,,
Humidity (%):,41.17,,,,,,Humidity (%):,40.96,,,,,,,
Lamp ADC:,3066,3081,829,851,,,Lamp ADC:,3066,3081,829,851,,,,
Data Date-Time:,2025/04/03T11:33:35,,,,,,Data Date-Time:,2025/04/03T11:29:42,,,,,,,
Total Measurement Time in sec:,6.4816973,,,,,,,,,,,,,,
,,,,,,,,,,,,,,,
***General Information***,,,,,,,***Calibration Coefficients***,,,,,,,,
Model Name:,NIR-S-G1,,,,,,Shift Vector Coefficients:,0.392694521123758,0.0064508848494657,-3.36963000867986E-05,,,,,
Serial Number:,C23R003,(95UB125GC0VC23R003),,,,,Pixel to Wavelength Coefficients:,1737.96619343203,-0.927679554192883,-0.000240514673521399,,,,,
GUI Version:,3.13.1,Revision:,930,,,,Versions (Cal/Ref/Cfg):,1,3,1,,,,,
TIVA Version:,2.4.10,,,,,,***Lamp Usage ***,,,,,,,,
DLPC Version:,2.3.1,,,,,,Total Time(hh:mm:ss):,15min 26sec ,,,,,,,
UUID:,DE:67:0C:88:67:47:5F:21,,,,,,***Device/Error/Activation Status***,,,,,,,,
Main Board Version:,F,,,,,,Device Status:,0x00000001,Activation Status:,Activated,,,,,
Detector Board Version:,C,,,,,,Error status:,0x00000000,Error Code:,0x00000000000000000000000000000000,,,,,
,,,,,,,,,Error Details:,Not found,,,,,
***Scan Data***,,,,,,,,,,,,,,,
Wavelength (nm),Absorbance (AU),Reference Signal (unitless),Sample Signal (unitless)
901.114121469303,0.197294423256118,104933,66622
904.983805426851,0.194923653529227,113181,72252
908.849160120276,0.193482789675342,121248,77659
913.996231967317,0.194169345989419,133082,85104
917.851485044454,0.192237518025136,144004,92499
921.702408857468,0.19244760702562,157380,101042
925.549003406358,0.18967362028646,173170,111892
929.391268691125,0.189964070330711,191946,123941
933.229204711769,0.187575922749302,211646,137415
937.062811468289,0.187912280708544,232070,150559
942.16755273279,0.185880021867705,258151,168265
945.991057873023,0.18485844117809,276060,180362
949.810233749132,0.1840387397977,293024,191807
953.625080361117,0.184418556211744,309794,202607
957.435597708979,0.18312404083393,326181,213961
961.241785792718,0.182590867984549,341648,224382
966.309968826844,0.182026705833365,361613,237803
970.106055294295,0.181606534725467,375542,247202
973.897812497622,0.180689650902191,387616,255689
977.685240436826,0.180375982283891,399137,263479
981.468339111907,0.179664683899775,409001,270433
985.247108522864,0.179218849696173,417243,276166
989.021548669698,0.178558799813368,423873,280981
994.047401121285,0.177514641629895,429847,285627
997.811739651831,0.177197391256178,433813,288473
1001.57174891825,0.175724731852072,437040,291606
1005.32742892055,0.175843974216355,438938,292792
1009.07877965873,0.175517274050936,440446,294019
1012.82580113278,0.174562648546737,441724,295521
1016.56849334271,0.174250220446407,442546,296284
1021.55201521176,0.172932355724651,442456,297124
1025.2846058054,0.172787306210416,442079,296970
1029.01286713492,0.172063088589969,441387,297000
1032.73679920031,0.171638714152869,440316,296569
1036.45640200158,0.170960901230162,439278,296332
1040.17167553873,0.170277164802482,439660,297057
1045.1186391774,0.16961326224139,440413,298021
1048.82381109826,0.169052874408484,439789,297983
1052.524653755,0.168401883669651,439789,298430
1056.22116714761,0.167921276980719,440913,299524
1059.9133512761,0.16748097618566,442150,300669
1063.60120614046,0.166930276569303,442537,301314
1067.28473174071,0.166397549152538,443124,302084
1072.18936479684,0.165859473729084,444959,303711
1075.86278878079,0.165202821991326,446797,305427
1079.53188350063,0.165190491646572,449413,307224
1083.19664895633,0.164661741076461,451629,309115
1086.85708514792,0.16403476626051,453694,310977
1090.51319207538,0.163322369301717,454723,312194
1094.16496973872,0.162986394347289,456211,313458
1099.02727221231,0.16299820098993,458785,315218
1102.66894825936,0.162208734405244,460500,316972
1106.30629504229,0.162103991423186,463076,318822
1109.93931256109,0.161467538700382,464949,320581
1113.56800081577,0.161187545044488,467151,322307
1117.19235980633,0.161102382477671,469762,324172
1120.81238953276,0.160942993332951,472016,325847
1125.63236142381,0.160291735983073,475120,328482
1129.24228953396,0.160339660676185,477675,330212
1132.84788837998,0.160619241190499,480536,331976
1136.44915796188,0.160429445925239,483350,334066
1140.04609827965,0.160712246599538,486740,336190
1143.6387093333,0.161235747467613,489700,337827
1148.42212299398,0.161437163753506,494230,340794
1152.00463243134,0.162034178945146,498417,343209
1155.58281260458,0.162434821891315,502399,345632
1159.1566635137,0.162969910780397,506731,348183
1162.72618515869,0.163432677036782,511269,350927
1166.29137753957,0.163868716795159,516410,354100
1169.85224065631,0.164060130682179,521556,357471
1174.59332373445,0.164340879037913,528685,362123
1178.14408523491,0.164677698866373,535242,366330
1181.69051747124,0.165101255344153,541803,370459
1185.23262044346,0.165314197146872,548545,374885
1188.77039415154,0.16531084822917,555017,379311
1192.30383859551,0.16555444289969,562511,384217
1195.83295377535,0.165549930924301,570550,389712
1200.53170627095,0.165181537830784,580866,397095
1204.0507198345,0.165277256655205,589047,402599
1207.56540413393,0.164653745402668,597155,408727
1211.07575916924,0.164192113300293,605470,414859
1214.58178494043,0.163763924051079,613846,421013
1218.08348144749,0.16294984622216,621255,426894
1222.74567571271,0.161663796169691,631335,435107
1226.23727060348,0.161040725890361,638509,440683
1229.72453623013,0.16036975805154,645276,446042
1233.20747259266,0.159899822698882,652506,451528
1236.68607969106,0.15920580824623,661985,458820
1240.16035752534,0.158497155510625,672847,467110
1243.63030609549,0.157490463897047,682947,475222
1248.25016977818,0.156860175278824,695994,485004
1251.71001673204,0.156456697182472,705428,492035
1255.16553442179,0.155969669363267,714672,499042
1258.61672284741,0.155632474666432,723101,505320
1262.06358200891,0.155127397582437,730865,511340
1265.50611190628,0.15517897868961,738195,516407
1268.94431253953,0.154614795768874,744913,521784
1273.52184563968,0.15394951094856,752773,528098
1276.94994465664,0.153703149935791,758945,532730
1280.37371440948,0.153575341178264,764128,536526
1283.79315489819,0.153030318305583,768811,540492
1287.20826612279,0.152485773098886,772773,543959
1290.61904808326,0.152166938936369,776936,547291
1295.16002295302,0.151951612361258,781920,551075
1298.56070329721,0.151555051611698,784593,553464
1301.95705437726,0.151267767368721,786440,555134
1305.3490761932,0.151450633949239,789036,556732
1308.73676874501,0.151171219723272,790857,558376
1312.1201320327,0.151188680470579,792063,559205
1315.49916605626,0.150938128493098,792498,559835
1319.99781034349,0.151155279238912,793298,560120
1323.36674275077,0.151437604931139,793923,560197
1326.73134589392,0.151887634846396,793614,559399
1330.09161977295,0.15213230056993,793113,558731
1333.44756438786,0.15269357639979,792841,557818
1336.79917973864,0.153402264066469,791979,556303
1340.1464658253,0.154446815120885,790200,553720
1344.60277952999,0.155422496131417,787356,550489
1347.93996400036,0.156621983662627,784967,547305
1351.27281920661,0.158043153347895,782082,543512
1354.60134514873,0.159237519608598,776750,538324
1357.92554182674,0.159716778205434,772198,534579
1361.24540924061,0.160879582268059,768666,530711
1364.56094739037,0.162050378704459,766435,527746
1368.97493051252,0.163664164772419,763717,523924
1372.28036704598,0.163847250691048,761557,522222
1375.58147431533,0.16463883981426,758394,519106
1378.87825232055,0.165845763610468,753720,514475
1382.17070106165,0.166784246849988,747895,509397
1385.45882053862,0.168393391610468,743359,504435
1389.83624543039,0.171383032237652,736509,496358
1393.11426329108,0.174051340751431,729376,488540
1396.38795188764,0.177064506897159,721026,479608
1399.65731122008,0.180798652145827,712991,470203
1402.92234128839,0.18556863220139,706034,460529
1406.18304209259,0.190698720742201,700094,451292
1409.43941363266,0.196638797145282,696138,442646
1413.77450794189,0.204826794554694,694023,433059
1417.02077786567,0.211293582640524,693523,426351
1420.26271852533,0.217140220203187,693070,420375
1423.50032992086,0.222585398013855,692921,415048
1426.73361205227,0.227394712154557,692865,410444
1429.96256491956,0.231502544501925,692703,406485
1433.18718852272,0.234986422184506,692292,402998
1437.47995224942,0.237593251899236,690788,399716
1440.69447423629,0.238989164003938,690413,398217
1443.90466695905,0.24003974487677,689944,396985
1447.11053041767,0.240370163470799,688095,395620
1450.31206461218,0.240978621039645,686475,394136
1453.50926954256,0.240721688703872,684619,393303
1457.76547503888,0.240980248101913,681808,391455
1460.95257835298,0.240938600266504,678775,389751
1464.13535240295,0.240192806346688,675651,388624
1467.31379718879,0.239880278886326,671871,386728
1470.48791271052,0.239231738594366,667765,384939
1473.65769896812,0.238508607981011,663225,382959
1476.8231559616,0.237822688935767,659123,381192
1481.03703087538,0.236115756683797,652974,379123
1484.19238625257,0.234742039819835,647624,377208
1487.34341236563,0.233675045251918,642219,374980
1490.49010921458,0.232345467572961,636911,373021
1493.63247679939,0.230773421267232,631134,370978
1496.77051512009,0.229415729678193,624936,368485
1499.90422417666,0.228026641000344,618692,365972
1504.0757685079,0.225926145112475,610298,362757
1507.19937594819,0.224591192609468,603301,359702
1510.31865412435,0.223221461850699,596046,356499
1513.43360303639,0.22160532960535,588600,353358
1516.5442226843,0.220168607824912,581159,350047
1519.65051306809,0.218735424076987,573729,346714
1522.75247418776,0.217484673308598,565880,342957
1526.88168793646,0.216215999534956,555370,337572
1529.97354743984,0.215284728887221,547420,333454
1533.0610776791,0.214300000532649,539137,329154
1536.14427865423,0.213408688858776,530676,324654
1539.22315036524,0.213095223084905,522358,319796
1542.29769281213,0.212108326511202,513692,315206
1546.39034833045,0.211099473756759,501743,308590
1549.45478916105,0.210799980142991,493161,303521
1552.51490072752,0.210138980566072,484348,298551
1555.57068302988,0.209593795944308,475344,293369
1558.6221360681,0.208611986335122,465932,288211
1561.66925984221,0.208187901346928,457192,283081
1564.71205435219,0.207580545782867,448052,277810
1568.76237928798,0.206770264575075,435739,270680
1571.79507218167,0.206276797188286,426812,265436
1574.82343581124,0.204934919957821,416706,259953
1577.84747017669,0.205531750655906,407834,254069
1580.86717527801,0.204095567629951,398440,249039
1583.88255111521,0.203108932469999,388975,243676
1586.89359768829,0.20241109057077,380001,238437
1590.90159204153,0.201360356049631,368154,231563
1593.90253699832,0.200741049074593,358742,225965
1596.89915269099,0.199176495375329,349813,221136
1599.89143911953,0.198357467907558,341092,216030
1602.87939628395,0.197540554225665,331922,210618
1605.86302418424,0.195858466568431,322865,205666
1609.83446030711,0.195113600852312,311246,198605
1612.80798659112,0.192808400233568,302387,193979
1615.777183611,0.192343121883066,293631,188564
1618.74205136676,0.191621322606397,285019,183338
1621.7025898584,0.190909404656171,276379,178072
1624.65879908592,0.190683822052826,267747,172600
1627.61067904931,0.18918592433516,259111,167610
1631.53978458964,0.188126625033162,248061,160854
1634.48156293674,0.188258780007738,240047,155610
1637.41901201972,0.18743957078944,231816,150558
1640.35213183857,0.187999283493918,224112,145367
1643.28092239331,0.188678318142086,216160,139990
1646.20538368392,0.188052897145924,208471,135205
1649.1255157104,0.18900148329593,200448,129718
1653.01229066819,0.188586518940035,191034,123744
1655.92232107839,0.190001414161157,183952,118769
1658.82802222446,0.190492680054601,176198,113634
1661.72939410641,0.189979563135626,169081,109173
1664.62643672424,0.191532609538837,161278,103763
1667.51915007795,0.19255113015323,153088,98263
1671.36936680536,0.195891284874958,142211,90582
1674.25197854278,0.197312038175984,132790,84305
1677.13026101607,0.196654774996541,122195,77696
1680.00421422524,0.197538897044611,111154,70532
1682.87383817029,0.200431272435793,99792,62902
1685.73913285121,0.200005474050156,87614,55280
1688.60009826801,0.203345636004471,76208,47715
1692.40798441288,0.204297598412132,61630,38503
1695.25884821339,0.203931080104345,51947,32481
1698.10538274978,0.203817691563721,43947,27486
1700.94758802205,0.202602897070575,37150,23300
