***Scan Config Information***,,,,,,,***Reference Scan Information***,,,,,,,,
Scan Config Name:,FolHerbario,,,,,,Scan Config Name:,Local New Reference,,,,,,,
Scan Config Type:,Slew,Num Section:,1,,,,Scan Config Type:,Slew,Num Section:,1,,,,,
Section Config Type:,Column,,,,,,Section Config Type:,Column,,,,,,,
Start Wavelength (nm):,900,,,,,,Start Wavelength (nm):,900,,,,,,,
End Wavelength (nm):,1700,,,,,,End Wavelength (nm):,1700,,,,,,,
Pattern Width (nm):,7.03,,,,,,Pattern Width (nm):,7.03,,,,,,,
Exposure (ms):,0.635,,,,,,Exposure (ms):,0.635,,,,,,,
Digital Resolution:,228,,,,,,Digital Resolution:,228,,,,,,,
Num Repeats:,20,,,,,,Num Repeats:,20,,,,,,,
PGA Gain:,64,(FixedPGA),,,,,PGA Gain:,64,(AutoPGA),,,,,,
System Temp (C):,40.48,,,,,,System Temp (C):,40.23,,,,,,,
Humidity (%):,47.22,,,,,,Humidity (%):,47.35,,,,,,,
Lamp ADC:,3077,3078,831,849,,,Lamp ADC:,3078,3078,831,849,,,,
Data Date-Time:,2025/04/03T10:57:00,,,,,,Data Date-Time:,2025/04/03T10:54:30,,,,,,,
Total Measurement Time in sec:,6.460385,,,,,,,,,,,,,,
,,,,,,,,,,,,,,,
***General Information***,,,,,,,***Calibration Coefficients***,,,,,,,,
Model Name:,NIR-S-G1,,,,,,Shift Vector Coefficients:,-5.74589567087503,0.0468271937173058,-9.53581739805986E-05,,,,,
Serial Number:,C23R002,(95UB125GC0VC23R002),,,,,Pixel to Wavelength Coefficients:,1756.1983651918,-0.919335509971685,-0.000241825006214287,,,,,
GUI Version:,3.13.1,Revision:,930,,,,Versions (Cal/Ref/Cfg):,1,3,1,,,,,
TIVA Version:,2.4.10,,,,,,***Lamp Usage ***,,,,,,,,
DLPC Version:,2.3.1,,,,,,Total Time(hh:mm:ss):,8min 37sec ,,,,,,,
UUID:,DE:67:0C:88:67:76:74:21,,,,,,***Device/Error/Activation Status***,,,,,,,,
Main Board Version:,F,,,,,,Device Status:,0x00000001,Activation Status:,Activated,,,,,
Detector Board Version:,C,,,,,,Error status:,0x00000000,Error Code:,0x00000000000000000000000000000000,,,,,
,,,,,,,,,Error Details:,Not found,,,,,
***Scan Data***,,,,,,,,,,,,,,,
Wavelength (nm),Absorbance (AU),Reference Signal (unitless),Sample Signal (unitless)
901.701099874012,0.19772278187111,90814,57601
905.577788882674,0.196083251762336,98589,62769
909.450125041225,0.193608804006865,106506,68197
913.318108349663,0.19386539550359,115473,73895
917.18173880799,0.193139108845586,126904,81346
921.041016416205,0.190573637475062,139784,90133
926.179948793651,0.188303151551598,162223,105150
930.029069751605,0.187718379629577,182892,118707
933.873837859447,0.185951282047743,205143,133692
937.714253117177,0.185502741163094,226681,147881
941.550315524795,0.183280797907138,244819,160533
945.382025082302,0.182815327568949,260455,170969
949.209381789697,0.181259786216944,273574,180225
954.305752966049,0.179812830603633,289067,191067
958.122953023182,0.179493518479351,299165,197887
961.935800230204,0.177886159796458,308531,204839
965.744294587114,0.176969236446112,317641,211333
969.548436093912,0.175791589575495,326692,217945
973.348224750598,0.175156939084284,335010,223821
977.143660557173,0.174716953231573,343433,229681
982.197470532431,0.173146215068272,353896,237536
985.982749688744,0.172934343461836,362070,243141
989.763675994946,0.172037896353379,369525,248660
993.540249451036,0.170745753532651,376437,254066
997.312470057013,0.169711814023869,383237,259272
1001.08033781288,0.169332849615466,390569,264463
1004.84385271863,0.168319706140361,396550,269140
1009.8551014928,0.167428407957846,404696,275233
1013.60845974829,0.166645056066241,410024,279360
1017.35746515367,0.166164894128553,414931,283016
1021.10211770894,0.165277386779599,418801,286240
1024.8424174141,0.164313532386551,422531,289431
1028.57836426914,0.163748207158327,425861,292092
1032.30995827408,0.162965388116469,428111,294165
1037.27864584715,0.162427847117501,430724,296327
1041.00008320182,0.161219677101282,432683,298504
1044.71716770638,0.161156108403254,434611,299878
1048.42989936083,0.160658368131298,435998,301180
1052.13827816517,0.160007570541519,437509,302677
1055.8423041194,0.15954631032148,438965,304007
1059.54197722351,0.159157505318955,440765,305527
1064.46810359549,0.158542545811353,441010,306130
1068.15762004934,0.157920832943128,439598,305587
1071.84278365308,0.157504033989165,436828,303953
1075.52359440671,0.156795472852761,433318,302003
1079.20005231022,0.156230898245969,431613,301206
1082.87215736363,0.156129898394798,430984,300837
1086.53990956692,0.155595522613221,431603,301640
1091.42347473781,0.155101586429939,433342,303200
1095.08107029084,0.154459802725845,435602,305232
1098.73431299376,0.154453331070621,438023,306933
1102.38320284657,0.154130250740091,441944,309911
1106.02773984926,0.154236572253958,445728,312488
1109.66792400185,0.15373710180277,449403,315427
1113.30375530432,0.154032271675017,453970,318416
1118.14475927411,0.153882648524976,460220,322911
1121.77043392632,0.153538200821194,465167,326641
1125.39175572842,0.153291917102181,470326,330451
1129.00872468041,0.153308110512167,476007,334430
1132.62134078229,0.153877352034634,481849,338091
1136.22960403405,0.153822503947743,487474,342081
1139.83351443571,0.153847308136469,492960,345911
1144.6319572044,0.154329059489581,500749,350987
1148.22571095579,0.154453962346731,506326,354794
1151.81511185707,0.155036933499501,512142,358388
1155.40015990824,0.155212571011353,517317,361863
1158.9808551093,0.155770888078551,523462,365691
1162.55719746024,0.156244900973578,529469,369484
1166.12918696107,0.156549157831031,534578,372788
1170.88506852868,0.157298930943321,542460,377632
1174.44690137925,0.157574055507631,548503,381597
1178.00438137971,0.157956146024337,554480,385416
1181.55750853005,0.158399637647719,560290,389057
1185.10628283029,0.158590888637335,566794,393400
1188.65070428041,0.158986414999662,573445,397654
1192.19077288043,0.15881585862171,580005,402361
1196.90409324693,0.159115672528445,589049,408353
1200.43400519669,0.158626830354763,595389,413213
1203.95956429632,0.158536748302221,602454,418203
1207.48077054585,0.158125886611313,609741,423662
1210.99762394527,0.157830689588076,616876,428911
1214.51012449457,0.157580057736713,623986,434105
1218.01827219376,0.156544124544691,631033,440056
1222.68903135918,0.155247850405612,640244,447814
1226.18702240811,0.154722692965525,647050,453122
1229.68066060693,0.153949012036545,653982,458793
1233.16994595564,0.153739227717336,661404,464224
1236.65487845423,0.152555715546967,669553,471226
1240.13545810271,0.152092838693994,679326,478614
1243.61168490109,0.151541107523879,689013,486056
1248.23988286541,0.150973788421331,701945,495826
1251.70595301352,0.150433694373021,709446,501748
1255.16767031152,0.150237968756853,716713,507116
1258.6250347594,0.149581602909807,723910,512983
1262.07804635718,0.14966696687614,731063,517950
1265.52670510484,0.149125564718132,736868,522714
1268.97101100239,0.148936834351005,742993,527288
1273.55664776562,0.148870666819886,751774,533601
1276.99079701291,0.148177347029362,756989,538161
1280.42059341009,0.148176998388546,762259,541908
1283.84603695715,0.147653095278542,767554,546331
1287.26712765411,0.147717722953293,773189,550260
1290.68386550095,0.147496994781215,778220,554122
1294.09625049768,0.147215598430594,782944,557847
1298.63932605982,0.147082710633148,789414,562629
1302.04155440629,0.147102408818963,794177,565998
1305.43942990264,0.146716826086047,798334,569466
1308.83295254889,0.14663755328556,802204,572331
1312.22212234502,0.146793347974776,806394,575114
1315.60693929105,0.146700862817973,810097,577878
1320.11325745224,0.146875750612438,813977,580412
1323.487917748,0.147405017850893,816201,581289
1326.85822519365,0.147444948956955,818704,583018
1330.22417978919,0.147756811448053,821185,584365
1333.58578153461,0.148103762162673,822702,584977
1336.94303042993,0.148829637765899,824174,585045
1340.29592647513,0.149710228932739,825820,585026
1344.75968343522,0.150494178933602,826308,584316
1348.10242283016,0.151770161635332,826236,582551
1351.44080937499,0.15273178431526,824801,580253
1354.77484306971,0.153737776991681,822743,577466
1358.10452391432,0.154809696448178,820967,574799
1361.42985190881,0.155669730818107,818905,572221
1364.75082705319,0.15663809866515,818408,570600
1369.17202281219,0.15757762269993,818835,569664
1372.48284130632,0.158625772304614,819086,568465
1375.78930695032,0.159346607213417,817003,566079
1379.09141974422,0.160246636712757,813286,562337
1382.38917968801,0.161485603527947,810156,558577
1385.68258678168,0.162998321418686,806998,554465
1388.97164102524,0.165170960199048,804046,549680
1393.35027558315,0.167836131750362,798309,542419
1396.62917317645,0.170820962777185,794849,536369
1399.90371791964,0.174323699900921,792497,530486
1403.17390981272,0.178669235415085,791680,524663
1406.43974885568,0.183315656596536,792074,519338
1409.70123504853,0.188523868698135,793267,513920
1412.95836839128,0.194400196603593,793586,507217
1417.29444174809,0.202073231684429,793490,498274
1420.54141844057,0.207917724704069,793499,491619
1423.78404228294,0.213934285287934,793803,485041
1427.0223132752,0.219010124287692,792975,478905
1430.25623141734,0.223655132813907,792394,473463
1433.48579670937,0.227386196596919,791665,468981
1436.71100915129,0.230495523767781,790306,464836
1441.00452130702,0.233770103362433,789353,460788
1444.21957709868,0.235717048603672,787789,457818
1447.43028004022,0.23667201791892,785624,455557
1450.63663013166,0.237453854495151,783434,453470
1453.83862737298,0.238278827699985,780849,451116
1457.0362717642,0.238662858309069,777938,449037
1460.2295633053,0.238730488460749,774488,446976
1464.48051425993,0.238762024627067,769389,444001
1467.66364915076,0.238772669286396,765670,441844
1470.84243119149,0.238661928451252,761504,439552
1474.01686038211,0.237860439839211,757302,437934
1477.18693672261,0.237381957922309,752414,435587
1480.35266021301,0.236271001578548,747020,433572
1483.51403085329,0.23546817212444,741224,431004
1487.72242060682,0.234416172460596,734054,427870
1490.87363459684,0.23331858487792,727680,425228
1494.02049573675,0.232426534030292,721815,422668
1497.16300402654,0.231321040117644,715563,420075
1500.30115946623,0.230130281631133,709435,417621
1503.4349620558,0.229171031772418,702461,414430
1506.56441179526,0.228016910169626,695346,411324
1510.7302403477,0.226564781562957,685844,407062
1513.8495334369,0.225201225046164,678185,403782
1516.96447367598,0.224652680729373,669309,399001
1520.07506106496,0.22328396759506,661260,395447
1523.18129560382,0.222450951878073,653599,391616
1526.28317729258,0.222018522183925,645619,387220
1529.38070613122,0.22091062218668,636931,382985
1533.50397348256,0.220002065042679,625254,376751
1536.59134567094,0.220037712300717,616688,371559
1539.67436500921,0.219091037527255,607424,366776
1542.75303149736,0.218931076487219,598494,361517
1545.82734513541,0.218685937430817,589392,356220
1548.89730592334,0.218087001109522,579659,350821
1551.96291386116,0.217901093878005,570276,345290
1556.04362001141,0.217285186584807,556513,337435
1559.09907129897,0.217203007654352,546524,331441
1562.15016973641,0.21713550605298,536486,325404
1565.19691532375,0.216802057008567,526399,319531
1568.23930806097,0.216802337255037,516047,313247
1571.27734794808,0.21683765471055,506062,307161
1574.31103498508,0.216410037111384,496118,301422
1578.34917993424,0.215897067835744,482489,293488
1581.37271032098,0.215782816443653,472154,287277
1584.39188785761,0.215142072691566,462028,281531
1587.40671254412,0.214738222448122,452061,275714
1590.41718438052,0.213774157488041,441233,269708
1593.42330336681,0.213030076754951,430566,263639
1596.42506950299,0.212667949590773,420852,257906
1600.42065325106,0.211399841082838,407152,250240
1603.41226273698,0.210732171803831,396815,244262
1606.39951937278,0.210178861822076,386828,238418
1609.38242315848,0.209393418602898,376896,232717
1612.36097409406,0.208252290491171,367228,227344
1615.33517217953,0.208214727204234,357431,221298
1618.30501741489,0.207863077010531,347691,215442
1622.25803996186,0.206322385054535,335206,208444
1625.21772854696,0.206546345819301,325775,202475
1628.17306428194,0.205695586702137,316177,196895
1631.12404716682,0.20549189727044,307042,191296
1634.07067720158,0.205279851016921,297698,185565
1637.01295438623,0.204550573758467,288401,180072
1639.95087872077,0.204217556011104,278661,174124
1643.86134006665,0.205180678857293,266381,166082
1646.78910775092,0.20429874770836,257085,160612
1649.71252258509,0.205042649790178,247660,154459
1652.63158456914,0.205768873234253,238817,148695
1655.54629370308,0.206524887467546,230307,143147
1658.45664998691,0.208176603225325,221593,137208
1661.36265342063,0.209054760905474,212348,131218
1665.23055356542,0.210117584682989,199999,123285
1668.12640034887,0.211338751295585,189791,116664
1671.01789428222,0.211828571409861,179059,109943
1673.90503536545,0.213215748187809,167471,102500
1676.78782359857,0.21328085259483,154268,94405
1679.66625898158,0.213502743962349,139719,85458
1682.54034151448,0.215264243641616,125309,76334
1686.36568045817,0.216292119578787,105202,63934
1689.22960634081,0.215270023679246,90740,55275
1692.08917937333,0.218750719867085,77525,46848
1694.94439955575,0.222577341318991,65822,39427
1697.79526688805,0.21919778383024,55694,33621
1700.64178137024,0.219502339776581,47501,28655
