***Scan Config Information***,,,,,,,***Reference Scan Information***,,,,,,,,
Scan Config Name:,FolHerbario,,,,,,Scan Config Name:,Local New Reference,,,,,,,
Scan Config Type:,Slew,Num Section:,1,,,,Scan Config Type:,Slew,Num Section:,1,,,,,
Section Config Type:,Column,,,,,,Section Config Type:,Column,,,,,,,
Start Wavelength (nm):,900,,,,,,Start Wavelength (nm):,900,,,,,,,
End Wavelength (nm):,1700,,,,,,End Wavelength (nm):,1700,,,,,,,
Pattern Width (nm):,7.03,,,,,,Pattern Width (nm):,7.03,,,,,,,
Exposure (ms):,0.635,,,,,,Exposure (ms):,0.635,,,,,,,
Digital Resolution:,228,,,,,,Digital Resolution:,228,,,,,,,
Num Repeats:,20,,,,,,Num Repeats:,20,,,,,,,
PGA Gain:,64,(FixedPGA),,,,,PGA Gain:,64,(AutoPGA),,,,,,
System Temp (C):,40.45,,,,,,System Temp (C):,40.38,,,,,,,
Humidity (%):,40.87,,,,,,Humidity (%):,40.97,,,,,,,
Lamp ADC:,3069,3082,845,842,,,Lamp ADC:,3069,3082,845,842,,,,
Data Date-Time:,2025/04/03T12:02:41,,,,,,Data Date-Time:,2025/04/03T12:01:27,,,,,,,
Total Measurement Time in sec:,6.4921881,,,,,,,,,,,,,,
,,,,,,,,,,,,,,,
***General Information***,,,,,,,***Calibration Coefficients***,,,,,,,,
Model Name:,NIR-S-G1,,,,,,Shift Vector Coefficients:,-4.78706677830951,0.0420606707536571,-9.21439965724389E-05,,,,,
Serial Number:,C23R001,(95UB125GC0VC23R001),,,,,Pixel to Wavelength Coefficients:,1777.69850932213,-0.910890781979712,-0.000240535926235214,,,,,
GUI Version:,3.13.1,Revision:,930,,,,Versions (Cal/Ref/Cfg):,1,3,1,,,,,
TIVA Version:,2.4.10,,,,,,***Lamp Usage ***,,,,,,,,
DLPC Version:,2.3.1,,,,,,Total Time(hh:mm:ss):,12min 35sec ,,,,,,,
UUID:,DE:67:0C:88:67:3E:75:21,,,,,,***Device/Error/Activation Status***,,,,,,,,
Main Board Version:,F,,,,,,Device Status:,0x00000001,Activation Status:,Activated,,,,,
Detector Board Version:,C,,,,,,Error status:,0x00000000,Error Code:,0x00000000000000000000000000000000,,,,,
,,,,,,,,,Error Details:,Not found,,,,,
***Scan Data***,,,,,,,,,,,,,,,
Wavelength (nm),Reflectance (unitless)
900.868887283122,0.543577612717037
904.747472781646,0.550240832542278
909.912185107076,0.557609365372767
913.780668096698,0.56149419754275
917.644821439648,0.564254950879969
921.504645135925,0.571085312182026
925.36013918553,0.573845120662322
929.211303588463,0.578592102084186
933.058138344724,0.581444362433415
938.180516347137,0.589351263379228
942.017248594496,0.593991169554866
945.849651195182,0.596909245922547
949.677724149196,0.601675057268318
953.501467456539,0.605668880455408
957.320881117208,0.609645774941857
961.135965131206,0.614076963879335
966.216008810601,0.618444856043633
970.020990315697,0.622425587751736
973.821642174121,0.627084474526077
977.617964385872,0.631158271727426
981.409956950951,0.634398366225319
985.197619869358,0.636981049403001
988.980953141092,0.641592752507503
994.01866249747,0.64622782961672
997.791893260303,0.649347538781987
1001.56079437646,0.653787349983235
1005.32536584595,0.657091823867911
1009.08560766877,0.659600197280582
1012.84151984491,0.663403211829563
1016.59310237438,0.667076317551567
1021.58847740774,0.671324959118755
1025.32995742831,0.674169517925919
1029.06710780221,0.676751234048592
1032.79992852944,0.680473264500283
1036.52841960999,0.683147625212808
1040.25258104387,0.686513858621211
1043.97241283108,0.689677823343074
1047.68791497161,0.693108265329532
1052.63518281973,0.696783422887941
1056.34058245136,0.698892795169157
1060.04165243632,0.701891526337941
1063.73839277461,0.704974717052429
1067.43080346623,0.70679097344846
1071.11888451118,0.709345175458198
1074.80263590945,0.712451613961422
1079.70756943455,0.715911092689498
1083.38121832392,0.71779861671685
1087.05053756662,0.720223404828962
1090.71552716264,0.721940583717103
1094.376187112,0.723834175518202
1098.03251741468,0.726330594418536
1101.68451807069,0.728171425415585
1106.54711727277,0.731016105821999
1110.18901541988,0.732331939439384
1113.82658392031,0.733732947249757
1117.45982277408,0.735516745856066
1121.08873198117,0.736514403021777
1124.71331154159,0.737659923585459
1128.33356145534,0.739150566065989
1133.1538263344,0.739853261497093
1136.76397373924,0.740709664985331
1140.36979149742,0.741312905875606
1143.97127960892,0.742763977430937
1147.56843807374,0.742528110021484
1151.1612668919,0.743485124653951
1154.74976606338,0.743238119791627
1159.52769661943,0.742574666842095
1163.10609328201,0.743380634546712
1166.68016029792,0.74408443479683
1170.24989766716,0.743831234159281
1173.81530538972,0.743480497794639
1177.37638346562,0.744396255816234
1180.93313189484,0.74454707894362
1185.66872812787,0.743667829424959
1189.21537404818,0.744859164358752
1192.75769032183,0.745403412788273
1196.29567694881,0.746039390330209
1199.82933392911,0.746487551116542
1203.35866126274,0.747233113557069
1206.8836589497,0.747892781661654
1211.57692085971,0.74921230480108
1215.09181603776,0.750814688893467
1218.60238156915,0.751837227861124
1222.10861745386,0.753471787913381
1225.6105236919,0.754947604392026
1229.10810028326,0.756527109035107
1232.60134722796,0.757446046030103
1236.09026452598,0.759065948631719
1240.73541925074,0.760449004934479
1244.21423403986,0.76222535861539
1247.68871918231,0.763348715515878
1251.15887467809,0.764505558872549
1254.62470052719,0.765530610028158
1258.08619672962,0.76603679863662
1261.54336328538,0.766631113324923
1266.14618368713,0.767457049930495
1269.59324773399,0.768146683113242
1273.03598213417,0.768816498948487
1276.47438688769,0.769802238119558
1279.90846199453,0.770513397037148
1283.3382074547,0.771585544409114
1286.76362326819,0.772606879477587
1291.32410934692,0.772866436570407
1294.73942265151,0.773645720944817
1298.15040630944,0.774224250006132
1301.55706032069,0.77423915469901
1304.95938468526,0.774784690913464
1308.35737940317,0.775270046065078
1311.7510444744,0.774962483082677
1316.26919623011,0.77510028070167
1319.65275879245,0.775110499430961
1323.03199170811,0.77483827386347
1326.40689497709,0.774139291922914
1329.77746859941,0.773428630126618
1333.14371257505,0.772548595203309
1336.50562690402,0.771702240623536
1340.98144433671,0.769864795250521
1344.33325615678,0.767610128271454
1347.68073833018,0.765579819130975
1351.0238908569,0.763725711084453
1354.36271373695,0.762251062740579
1357.69720697033,0.760227490904794
1361.02737055704,0.758206941788727
1365.46085366672,0.75568701872376
1368.78091474452,0.754072329101775
1372.09664617566,0.752870278780633
1375.40804796012,0.751683335574848
1378.71512009791,0.750764070873352
1382.01786258902,0.748467252236095
1385.31627543347,0.746113323580756
1388.61035863124,0.743396084474086
1392.99573455567,0.738107619575478
1396.27971524454,0.732777765914284
1399.55936628673,0.727277270922093
1402.83468768226,0.720399238818096
1406.10567943111,0.711916935096978
1409.3723415333,0.702824130854012
1412.6346739888,0.69278805132694
1416.97771559022,0.679740951874443
1420.22994553682,0.669388954904764
1423.47784583676,0.660187379971422
1426.72141649002,0.65258825655928
1429.96065749661,0.645359891983686
1433.19556885653,0.639836855724332
1436.42615056978,0.635024842044201
1440.72685784817,0.631464966908579
1443.94733705251,0.629516881970734
1447.16348661018,0.627315510863408
1450.37530652118,0.625889060891127
1453.58279678551,0.625448899196685
1456.78595740317,0.625146083552752
1459.98478837415,0.624970867368487
1464.24316132953,0.62461241107628
1467.43188979161,0.625029584955159
1470.61628860702,0.624902270195345
1473.79635777575,0.626205985573499
1476.97209729782,0.626990680153571
1480.14350717321,0.628425095658444
1483.31058740193,0.629111951405107
1487.52662603429,0.631484478186415
1490.68360375411,0.632683409709347
1493.83625182725,0.634036550615706
1496.98457025372,0.63589347800024
1500.12855903353,0.637737858862864
1503.26821816666,0.639818261939856
1506.40354765311,0.641423375812648
1510.57725196245,0.644123668681079
1513.70247894001,0.646034680676418
1516.82337627089,0.647816682714888
1519.9399439551,0.649711520801535
1523.05218199264,0.651658858582665
1526.16009038351,0.6530431742646
1529.2636691277,0.654600456286634
1532.36291822522,0.655542968756422
1536.48851534932,0.656837324470073
1539.57766193794,0.657264334550999
1542.66247887988,0.658200776665251
1545.74296617516,0.658841322507881
1548.81912382376,0.660069099606943
1551.89095182569,0.660647192348144
1554.95845018095,0.661211796015713
1559.04171298203,0.662618644455631
1562.09910882838,0.662509812217812
1565.15217502807,0.662898392295079
1568.20091158108,0.663179639950452
1571.24531848742,0.664277596581223
1574.28539574709,0.664809566408322
1577.32114336008,0.665782504053251
1581.36207183814,0.666507232273919
1584.38771694224,0.66762651880323
1587.40903239966,0.668180076505329
1590.42601821041,0.670002861467824
1593.43867437448,0.670658148333214
1596.44700089189,0.673311278168117
1599.45099776262,0.675379348200247
1603.44959191766,0.677121280708183
1606.44348627949,0.679228145939369
1609.43305099465,0.68035061246895
1612.41828606314,0.682383681682961
1615.39919148495,0.684434911904417
1618.37576726009,0.684888292106838
1621.34801338856,0.686318414149037
1625.30427322059,0.688662918966001
1628.26641684016,0.689632655942538
1631.22423081305,0.689971168129438
1634.17771513927,0.690110170467097
1637.12686981883,0.690686836225826
1640.0716948517,0.691121066765197
1643.01219023791,0.690269880566967
1646.92611574692,0.690390070921986
1649.85650862422,0.689751199358878
1652.78257185485,0.688817174232605
1655.70430543881,0.688153078463271
1658.6217093761,0.686614428313997
1661.53478366672,0.685119422406918
1664.44352831066,0.683819834934616
1668.31511949665,0.681373867398703
1671.21376163169,0.680147901717553
1674.10807412006,0.677817676838336
1676.99805696176,0.675352992349044
1679.88371015678,0.677110083889745
1682.76503370514,0.673388027872482
1685.64202760682,0.67240143921475
1688.51469186182,0.668594353324595
1692.33817586257,0.67019910782287
1695.20073760867,0.666844797312772
1698.05896970811,0.664737815426833
1700.91287216087,0.660733896975508
