***Scan Config Information***,,,,,,,***Reference Scan Information***,,,,,,,,
Scan Config Name:,FolHerbario,,,,,,Scan Config Name:,Local New Reference,,,,,,,
Scan Config Type:,Slew,Num Section:,1,,,,Scan Config Type:,Slew,Num Section:,1,,,,,
Section Config Type:,Column,,,,,,Section Config Type:,Column,,,,,,,
Start Wavelength (nm):,900,,,,,,Start Wavelength (nm):,900,,,,,,,
End Wavelength (nm):,1700,,,,,,End Wavelength (nm):,1700,,,,,,,
Pattern Width (nm):,7.03,,,,,,Pattern Width (nm):,7.03,,,,,,,
Exposure (ms):,0.635,,,,,,Exposure (ms):,0.635,,,,,,,
Digital Resolution:,228,,,,,,Digital Resolution:,228,,,,,,,
Num Repeats:,20,,,,,,Num Repeats:,20,,,,,,,
PGA Gain:,64,(FixedPGA),,,,,PGA Gain:,64,(AutoPGA),,,,,,
System Temp (C):,40.71,,,,,,System Temp (C):,40.38,,,,,,,
Humidity (%):,40.75,,,,,,Humidity (%):,40.97,,,,,,,
Lamp ADC:,3068,3082,844,842,,,Lamp ADC:,3069,3082,845,842,,,,
Data Date-Time:,2025/04/03T12:03:29,,,,,,Data Date-Time:,2025/04/03T12:01:27,,,,,,,
Total Measurement Time in sec:,6.4860579,,,,,,,,,,,,,,
,,,,,,,,,,,,,,,
***General Information***,,,,,,,***Calibration Coefficients***,,,,,,,,
Model Name:,NIR-S-G1,,,,,,Shift Vector Coefficients:,-4.78706677830951,0.0420606707536571,-9.21439965724389E-05,,,,,
Serial Number:,C23R001,(95UB125GC0VC23R001),,,,,Pixel to Wavelength Coefficients:,1777.69850932213,-0.910890781979712,-0.000240535926235214,,,,,
GUI Version:,3.13.1,Revision:,930,,,,Versions (Cal/Ref/Cfg):,1,3,1,,,,,
TIVA Version:,2.4.10,,,,,,***Lamp Usage ***,,,,,,,,
DLPC Version:,2.3.1,,,,,,Total Time(hh:mm:ss):,12min 50sec ,,,,,,,
UUID:,DE:67:0C:88:67:3E:75:21,,,,,,***Device/Error/Activation Status***,,,,,,,,
Main Board Version:,F,,,,,,Device Status:,0x00000001,Activation Status:,Activated,,,,,
Detector Board Version:,C,,,,,,Error status:,0x00000000,Error Code:,0x00000000000000000000000000000000,,,,,
,,,,,,,,,Error Details:,Not found,,,,,
***Scan Data***,,,,,,,,,,,,,,,
Wavelength (nm),Reflectance (unitless)
900.868887283122,0.446950844490703
904.747472781646,0.455217452448757
909.912185107076,0.460906930407855
913.780668096698,0.464255826526154
917.644821439648,0.467123722980602
921.504645135925,0.472257297323804
925.36013918553,0.476885899242558
929.211303588463,0.480516534936123
933.058138344724,0.485495904883016
938.180516347137,0.490181636750258
942.017248594496,0.496104432175842
945.849651195182,0.499636096458699
949.677724149196,0.504522392076296
953.501467456539,0.508623164885649
957.320881117208,0.512740771661995
961.135965131206,0.518522320893862
966.216008810601,0.522715691904527
970.020990315697,0.526803450010632
973.821642174121,0.53192713374904
977.617964385872,0.536062142312672
981.409956950951,0.540538385967545
985.197619869358,0.543197958885603
988.980953141092,0.548178643549665
994.01866249747,0.553206746837148
997.791893260303,0.557806224792243
1001.56079437646,0.561663190614871
1005.32536584595,0.566030775387193
1009.08560766877,0.570025320426176
1012.84151984491,0.574392634794206
1016.59310237438,0.578454949290392
1021.58847740774,0.58384316245922
1025.32995742831,0.587530447798125
1029.06710780221,0.591149312277643
1032.79992852944,0.595578039030698
1036.52841960999,0.599037647946337
1040.25258104387,0.603366220045221
1043.97241283108,0.60728785534792
1047.68791497161,0.611065365581883
1052.63518281973,0.615472080718188
1056.34058245136,0.618855300348283
1060.04165243632,0.623703125574629
1063.73839277461,0.627218225663258
1067.43080346623,0.630929141894409
1071.11888451118,0.633477838676781
1074.80263590945,0.636614699514499
1079.70756943455,0.64150251282317
1083.38121832392,0.643367773611373
1087.05053756662,0.647289152878421
1090.71552716264,0.649589424946217
1094.376187112,0.652001649994844
1098.03251741468,0.655791200927777
1101.68451807069,0.658578941232059
1106.54711727277,0.662517581443752
1110.18901541988,0.664412452478591
1113.82658392031,0.666456343552759
1117.45982277408,0.669401936571092
1121.08873198117,0.671188580326191
1124.71331154159,0.673615184615629
1128.33356145534,0.675092308359177
1133.1538263344,0.6774551496447
1136.76397373924,0.67893373098764
1140.36979149742,0.679691495792068
1143.97127960892,0.681682498177737
1147.56843807374,0.682645667118318
1151.1612668919,0.683894129939065
1154.74976606338,0.684635157985729
1159.52769661943,0.685192564329079
1163.10609328201,0.685409538766429
1166.68016029792,0.686469468769979
1170.24989766716,0.686687427661102
1173.81530538972,0.687162764638784
1177.37638346562,0.687281834461165
1180.93313189484,0.687644132554169
1185.66872812787,0.687842979602219
1189.21537404818,0.688868452393536
1192.75769032183,0.688965573790512
1196.29567694881,0.690054027928814
1199.82933392911,0.691020555847596
1203.35866126274,0.691598450543592
1206.8836589497,0.693621379612902
1211.57692085971,0.695143066475232
1215.09181603776,0.697441820101769
1218.60238156915,0.699194600328826
1222.10861745386,0.701417531282111
1225.6105236919,0.703719822039656
1229.10810028326,0.706071538569879
1232.60134722796,0.708467848150893
1236.09026452598,0.709791179077007
1240.73541925074,0.711647866528426
1244.21423403986,0.713551848377793
1247.68871918231,0.714986846077543
1251.15887467809,0.716295179103506
1254.62470052719,0.716991274171492
1258.08619672962,0.718459830647784
1261.54336328538,0.719390738444713
1266.14618368713,0.720242901515807
1269.59324773399,0.721068799461366
1273.03598213417,0.722236871673835
1276.47438688769,0.723355918641434
1279.90846199453,0.723725361056935
1283.3382074547,0.725134319458604
1286.76362326819,0.725502479508659
1291.32410934692,0.726895190326025
1294.73942265151,0.727830709254353
1298.15040630944,0.728261829420855
1301.55706032069,0.728595145764895
1304.95938468526,0.729510556796769
1308.35737940317,0.730094517637677
1311.7510444744,0.73004601028863
1316.26919623011,0.730324089405469
1319.65275879245,0.730449961863561
1323.03199170811,0.730173974292095
1326.40689497709,0.730176712916298
1329.77746859941,0.729699272058408
1333.14371257505,0.728676130180432
1336.50562690402,0.727819199462568
1340.98144433671,0.726707130370579
1344.33325615678,0.724931947956505
1347.68073833018,0.723111015156514
1351.0238908569,0.721511865108604
1354.36271373695,0.719578553399116
1357.69720697033,0.717878786386976
1361.02737055704,0.715967104163959
1365.46085366672,0.713523737986748
1368.78091474452,0.711673241473006
1372.09664617566,0.711126339786485
1375.40804796012,0.708895126025493
1378.71512009791,0.707582192240612
1382.01786258902,0.705680517030318
1385.31627543347,0.703059721254535
1388.61035863124,0.700085086292546
1392.99573455567,0.695268324857191
1396.27971524454,0.690653761558009
1399.55936628673,0.685611392230654
1402.83468768226,0.679281239265209
1406.10567943111,0.671504351997807
1409.3723415333,0.662950161667967
1412.6346739888,0.654073323411082
1416.97771559022,0.64234351022398
1420.22994553682,0.633537944029939
1423.47784583676,0.625835773827625
1426.72141649002,0.618728883080046
1429.96065749661,0.61214348352612
1433.19556885653,0.607964639997102
1436.42615056978,0.604351227321089
1440.72685784817,0.601736410051755
1443.94733705251,0.599548399078924
1447.16348661018,0.598282553512863
1450.37530652118,0.597689877629358
1453.58279678551,0.596789545948465
1456.78595740317,0.596578476788555
1459.98478837415,0.596476681888614
1464.24316132953,0.595914156414925
1467.43188979161,0.596659395183712
1470.61628860702,0.596693081159412
1473.79635777575,0.597843651030043
1476.97209729782,0.598368846117695
1480.14350717321,0.599070455787772
1483.31058740193,0.599577029302697
1487.52662603429,0.60077362432838
1490.68360375411,0.601379355245382
1493.83625182725,0.602404434097026
1496.98457025372,0.603692602805419
1500.12855903353,0.605158813979734
1503.26821816666,0.606885076509292
1506.40354765311,0.608204439289873
1510.57725196245,0.610323839756912
1513.70247894001,0.612545539220191
1516.82337627089,0.613810685444918
1519.9399439551,0.616260916926857
1523.05218199264,0.617501285379882
1526.16009038351,0.618462197748733
1529.2636691277,0.620502631296316
1532.36291822522,0.621367890947534
1536.48851534932,0.622085068610177
1539.57766193794,0.623599769284478
1542.66247887988,0.623960310597882
1545.74296617516,0.624566280601792
1548.81912382376,0.62590920535452
1551.89095182569,0.626081398354752
1554.95845018095,0.626976934493099
1559.04171298203,0.627923664820832
1562.09910882838,0.628596189426373
1565.15217502807,0.629903688485968
1568.20091158108,0.629868451534222
1571.24531848742,0.630603579129271
1574.28539574709,0.631375824315017
1577.32114336008,0.631676787206832
1581.36207183814,0.63257038478666
1584.38771694224,0.633195761528202
1587.40903239966,0.634927872214266
1590.42601821041,0.636051873387694
1593.43867437448,0.636639838675137
1596.44700089189,0.638961192617132
1599.45099776262,0.640177416803893
1603.44959191766,0.642852181577365
1606.44348627949,0.643874350933114
1609.43305099465,0.645640278825644
1612.41828606314,0.647732668718349
1615.39919148495,0.649020356066687
1618.37576726009,0.649928008671315
1621.34801338856,0.650326607675488
1625.30427322059,0.652693015179907
1628.26641684016,0.651901135651698
1631.22423081305,0.653191624538251
1634.17771513927,0.652737460758966
1637.12686981883,0.653272218630169
1640.0716948517,0.653255124999175
1643.01219023791,0.653487771036809
1646.92611574692,0.652414893617021
1649.85650862422,0.652129205074816
1652.78257185485,0.651349625324511
1655.70430543881,0.649871730697034
1658.6217093761,0.650906072202312
1661.53478366672,0.648071191705495
1664.44352831066,0.647141065803328
1668.31511949665,0.645130625910023
1671.21376163169,0.642196867332354
1674.10807412006,0.639058589438667
1676.99805696176,0.63775066360331
1679.88371015678,0.635366987061902
1682.76503370514,0.630064791295962
1685.64202760682,0.630534774602637
1688.51469186182,0.626563108859683
1692.33817586257,0.624785115874225
1695.20073760867,0.622528437285289
1698.05896970811,0.62030961045159
1700.91287216087,0.611627298875621
