***Scan Config Information***,,,,,,,***Reference Scan Information***,,,,,,,,
Scan Config Name:,FolHerbario,,,,,,Scan Config Name:,Local New Reference,,,,,,,
Scan Config Type:,Slew,Num Section:,1,,,,Scan Config Type:,Slew,Num Section:,1,,,,,
Section Config Type:,Column,,,,,,Section Config Type:,Column,,,,,,,
Start Wavelength (nm):,900,,,,,,Start Wavelength (nm):,900,,,,,,,
End Wavelength (nm):,1700,,,,,,End Wavelength (nm):,1700,,,,,,,
Pattern Width (nm):,7.03,,,,,,Pattern Width (nm):,7.03,,,,,,,
Exposure (ms):,0.635,,,,,,Exposure (ms):,0.635,,,,,,,
Digital Resolution:,228,,,,,,Digital Resolution:,228,,,,,,,
Num Repeats:,20,,,,,,Num Repeats:,20,,,,,,,
PGA Gain:,64,(FixedPGA),,,,,PGA Gain:,64,(AutoPGA),,,,,,
System Temp (C):,41.13,,,,,,System Temp (C):,41.22,,,,,,,
Humidity (%):,41.2,,,,,,Humidity (%):,43.15,,,,,,,
Lamp ADC:,3083,3085,851,854,,,Lamp ADC:,3083,3086,851,853,,,,
Data Date-Time:,2025/04/03T11:39:45,,,,,,Data Date-Time:,2025/04/03T11:34:43,,,,,,,
Total Measurement Time in sec:,6.5030797,,,,,,,,,,,,,,
,,,,,,,,,,,,,,,
***General Information***,,,,,,,***Calibration Coefficients***,,,,,,,,
Model Name:,NIR-S-G1,,,,,,Shift Vector Coefficients:,-2.27453457587495,0.0384893477179632,-0.000120883834660424,,,,,
Serial Number:,C23R004,(95UB125GC0VC23R004),,,,,Pixel to Wavelength Coefficients:,1773.06832862561,-0.918144602406657,-0.000240533803363975,,,,,
GUI Version:,3.13.1,Revision:,930,,,,Versions (Cal/Ref/Cfg):,1,3,1,,,,,
TIVA Version:,2.4.10,,,,,,***Lamp Usage ***,,,,,,,,
DLPC Version:,2.3.1,,,,,,Total Time(hh:mm:ss):,13min 20sec ,,,,,,,
UUID:,DE:67:0C:88:67:66:73:21,,,,,,***Device/Error/Activation Status***,,,,,,,,
Main Board Version:,F,,,,,,Device Status:,0x00000011,Activation Status:,Activated,,,,,
Detector Board Version:,C,,,,,,Error status:,0x00000000,Error Code:,0x00000000000000000000000000000000,,,,,
,,,,,,,,,Error Details:,Not found,,,,,
***Scan Data***,,,,,,,,,,,,,,,
Wavelength (nm),Absorbance (AU),Reference Signal (unitless),Sample Signal (unitless)
900.860912737931,0.263543490459321,118180,64417
904.749703961815,0.259789261193382,127079,69869
909.9280239805,0.256226051451237,138883,76988
913.806712784643,0.253505501373772,149523,83407
917.681071980326,0.24977410498792,162436,91392
921.551101567548,0.246769300073205,178118,100911
925.41680154631,0.244551714294567,196377,111825
929.278171916611,0.24220872856377,217641,124604
933.135212678451,0.238854438609113,239781,138344
936.987923831831,0.237322371677696,262213,151821
942.118137089843,0.234155126030229,289013,168563
945.960745823482,0.231356715344643,306165,179721
949.79902494866,0.228918550014707,321669,189885
953.632974465377,0.226315263594551,336434,199795
957.462594373634,0.225191823893508,350323,208582
961.287884673431,0.22348507588066,363497,217278
965.108845364766,0.22154356523544,376029,225776
970.196724673387,0.219148739342281,392643,237055
974.007582944981,0.217965805187025,404451,244850
977.814111608115,0.217030071660739,415636,252164
981.616310662789,0.215488783659293,425792,259244
985.414180109002,0.214039976254884,435430,265998
989.207719946754,0.213064429804947,444225,271981
992.996930176046,0.211392627315113,451981,277797
996.781810796877,0.210148691015541,458852,282829
1001.82158334482,0.2087051450406,467712,289250
1005.59636154591,0.207819794955329,473161,293217
1009.36681013854,0.207031818789255,477738,296591
1013.13292912271,0.20533467797526,481484,300087
1016.89471849842,0.204820431017408,484629,302405
1020.65217826567,0.203403490199777,486571,304609
1024.40530842446,0.202631956532657,488552,306393
1028.15410897478,0.201635697602147,490145,308098
1033.14577476206,0.200705821022443,491208,309428
1036.88447289264,0.199971300124214,491641,310225
1040.61884141477,0.199219453531173,492466,311284
1044.34888032843,0.198394298178187,492436,311857
1048.07458963364,0.19792203075427,491038,311310
1051.79596933038,0.196956435746599,489554,311060
1055.51301941866,0.196367237930666,488051,310526
1059.22573989848,0.195364294611849,487358,310802
1064.16929892509,0.194363121933508,486350,310875
1067.87191698517,0.193508513815375,486732,311732
1071.57020543679,0.19325534373202,487962,312702
1075.26416427995,0.192674150088752,489220,313928
1078.95379351464,0.191989205232647,490618,315322
1082.63909314088,0.19155453337523,492723,316992
1086.32006315866,0.19137824490202,495500,318908
1091.22128823587,0.190760404359527,498406,321235
1094.89215583391,0.190378959394722,502219,323977
1098.55869382348,0.189898904783821,505797,326646
1102.2209022046,0.18962353280923,509424,329197
1105.87878097725,0.189888768207691,513326,331516
1109.53233014145,0.189187894159479,517068,334472
1113.18154969718,0.189468905285498,521666,337228
1116.82643964446,0.189622265894982,525151,339361
1121.67955796099,0.189610691802801,530406,342766
1125.31434548853,0.189681890520465,534308,345231
1128.9448034076,0.190432569985184,538454,347309
1132.57093171821,0.191503256742679,543193,349503
1136.19273042036,0.191902013719656,547315,351832
1139.81019951405,0.192559921155161,551672,354096
1143.42333899928,0.193871544313098,555880,355721
1147.03214887605,0.194972598646392,560321,357655
1151.83716043191,0.196591968839053,566520,360266
1155.43586788894,0.198044838081569,571200,362029
1159.03024573751,0.199092292573126,575801,364066
1162.62029397761,0.200690274817447,580592,365747
1166.20601260926,0.202686403871711,586319,367661
1169.78740163244,0.203728493085411,591011,369715
1173.36446104717,0.20518283911313,596320,371789
1176.93719085343,0.206631483855766,602540,374416
1181.69409564862,0.208256888177255,610125,377713
1185.25672303515,0.209385074692499,616624,380746
1188.81502081321,0.209801068702857,623315,384509
1192.36898898281,0.209758001939271,630061,388709
1195.91862754395,0.209890237107045,637233,393014
1199.46393649663,0.210194770200724,644347,397123
1203.00491584085,0.209727560851886,652011,402279
1206.54156557661,0.208966836959601,659149,407396
1211.25036361113,0.207445423583775,669099,414997
1214.77691092715,0.20571903531962,676483,421248
1218.29912863471,0.203902452575259,684222,427853
1221.8170167338,0.202024308594914,691898,434528
1225.33057522444,0.200103845126583,699411,441193
1228.83980410662,0.198651380649359,706276,447016
1232.34470338033,0.197344911433784,713042,452658
1237.01116746546,0.195782283413231,721636,459765
1240.50596431943,0.194411890698304,727206,464778
1243.99643156495,0.193776936631896,733835,469701
1247.482569202,0.192753057912365,741141,475497
1250.96437723059,0.192249736089285,750220,481880
1254.44185565073,0.191389913676672,758424,488115
1257.9150044624,0.191103945352074,766555,493673
1261.38382366561,0.190433770929066,774669,499669
1266.00218099006,0.189943093784141,784410,506524
1269.46089777353,0.189737556787877,790396,510631
1272.91528494854,0.189274740818227,796857,515354
1276.36534251509,0.188775909921976,802673,519712
1279.81107047318,0.188578595936252,808292,523588
1283.2524688228,0.188379776296098,813494,527199
1286.68953756397,0.188082100761921,817780,530340
1290.12227669668,0.1879637914179,822350,533449
1294.69252726046,0.187599395349123,827213,537054
1298.11516397342,0.187547295072971,830234,539080
1301.53347107793,0.187487572039417,833215,541090
1304.94744857397,0.187619693046318,835930,542688
1308.35709646156,0.187481148080965,837542,543908
1311.76241474068,0.18775398573845,839603,544904
1315.16340341134,0.187885350865819,841238,545800
1318.56006247354,0.188434802182453,842411,545870
1323.08220627665,0.188906872434185,843596,546044
1326.46876291911,0.189406707103618,843542,545381
1329.85098995311,0.190392227665735,843471,544099
1333.22888737865,0.191500351463474,843391,542661
1336.60245519573,0.192385001222824,842742,541140
1339.97169340435,0.193892725705239,842005,538793
1343.33660200451,0.195222931911075,840517,536196
1347.81641185822,0.197878202773446,838035,531354
1351.17121803864,0.200015625624346,834928,526785
1354.52169461059,0.201947504789111,830773,521837
1357.86784157409,0.203674926992299,827267,517572
1361.20965892912,0.205920797493245,824564,513220
1364.5471466757,0.208010702529652,821958,509142
1367.88030481381,0.21005875620054,820442,505812
1371.20913334347,0.211907609212538,818969,502759
1375.64083643651,0.214391926821058,815538,497797
1378.95956254642,0.216549562424018,810378,492196
1382.27395904787,0.21909968539491,804773,485930
1385.58402594086,0.222109302285976,799758,479567
1388.88976322539,0.225474833769521,794385,472668
1392.19117090146,0.22870192243565,787230,464943
1395.48824896907,0.233110695906563,779923,455975
1398.78099742822,0.238180340118304,773999,447260
1403.16459376059,0.246447749384251,767737,435276
1406.4472398,0.254052342821847,764392,425857
1409.72555623094,0.262214994986126,761821,416522
1412.99954305343,0.270824188482409,759824,407276
1416.26920026746,0.279209030640108,757836,398443
1419.53452787302,0.287265151308729,756187,390269
1422.79552587013,0.294568184974417,754831,383073
1426.05219425877,0.301040368733353,753624,376803
1430.38768383047,0.308429199636128,752561,369924
1433.63424979937,0.312458001725063,751807,366141
1436.87648615981,0.315482545192553,750521,362978
1440.11439291179,0.317419165245983,750359,361285
1443.34797005532,0.31924774735521,749581,359394
1446.57721759038,0.319977278767093,748119,358091
1449.80213551698,0.320304546266007,746910,357243
1453.02272383511,0.320651881691202,745819,356436
1457.31010664614,0.320397126776125,742845,355223
1460.52059254454,0.320103550827151,739992,354098
1463.72674883448,0.319625284512215,737614,353349
1466.92857551595,0.319090457646924,734590,352334
1470.12607258897,0.318060935063352,731091,351488
1473.31924005352,0.316937511957375,727582,350707
1476.50807790962,0.315666240604709,723997,350002
1480.75312677125,0.314299004636272,719152,348756
1483.93186220761,0.31328529889003,714875,347492
1487.1062680355,0.311540185849144,710285,346651
1490.27634425493,0.310633871010406,705774,345169
1493.44209086591,0.308825101061625,701004,344267
1496.60350786842,0.307755362540802,695867,342587
1499.76059526247,0.30576860186614,690673,341589
1502.91335304806,0.304052163706956,685111,340180
1507.11029514902,0.301955407283494,677450,338004
1510.25295051487,0.300414296218528,671739,336346
1513.39127627226,0.298348472173056,665371,334746
1516.52527242119,0.296479868171066,658746,332842
1519.65493896165,0.294916747767485,652520,330885
1522.78027589366,0.293537284773397,645892,328566
1525.90128321721,0.292023555273139,638618,326000
1529.01796093229,0.290180363220375,631501,323738
1533.16679627258,0.289111969671339,621121,319201
1536.27337156793,0.287518847679479,612825,316095
1539.37561725481,0.2867410562567,605404,312827
1542.47353333323,0.285684586140806,597290,309386
1545.5671198032,0.284569367499846,588489,305611
1548.6563766647,0.284024300587897,580085,301625
1551.74130391774,0.283044429758059,571722,297948
1554.82190156232,0.282172150307247,562189,293569
1558.92263014194,0.281209872745601,549717,287693
1561.99312536678,0.280557317975349,540390,283237
1565.05929098316,0.279553074208738,530894,278904
1568.12112699108,0.278950112769816,521461,274329
1571.17863339054,0.278493734374193,512076,269675
1574.23181018153,0.277851205353157,502307,264922
1577.28065736407,0.276849565781856,492327,260258
1580.32517493815,0.276531262086687,482804,255411
1584.37779675709,0.275191505119046,469635,249212
1587.41221191143,0.274526994544111,459731,244330
1590.4422974573,0.273042665434792,449861,239903
1593.46805339471,0.272005791741678,439416,234893
1596.48947972367,0.270228790791983,429536,230553
1599.50657644416,0.268476388407013,419575,226117
1602.5193435562,0.267595610523442,410077,221447
1606.52963142574,0.266002169638802,397291,215331
1609.53229611804,0.264939011281035,387660,210626
1612.53063120187,0.264380638280493,377973,205627
1615.52463667724,0.262625408282002,368450,201258
1618.51431254415,0.262203679124399,358430,195975
1621.4996588026,0.261687362122371,348788,190930
1624.48067545259,0.260378674451419,339204,186244
1627.45736249411,0.260908434816268,329813,180867
1631.41954360299,0.260124515103443,316868,174082
1634.38612822478,0.259343175809795,307548,169266
1637.3483832381,0.2589806738325,298423,164381
1640.30630864297,0.258571394807863,289407,159565
1643.25990443938,0.258196277929101,280582,154833
1646.20917062732,0.258535255736149,272105,150038
1649.15410720681,0.258725456731963,263537,145250
1652.09471417783,0.259874290921925,254970,140157
1656.00878852603,0.262393118714728,243535,133097
1658.93929307732,0.263974118904936,234826,127871
1661.86546802014,0.266228730540963,226067,122464
1664.7873133545,0.268898268314477,216755,116700
1667.7048290804,0.271791706470966,206256,110310
1670.61801519784,0.275698421813875,195379,103557
1673.52687170682,0.279818134786894,183320,96248
1676.43139860734,0.286333126140613,170076,87965
1680.29736619487,0.293557009361423,149861,76231
1683.19179067565,0.296785557128914,133590,67451
1686.08188554796,0.303673422776387,117662,58474
1688.96765081182,0.308808407314218,102135,50161
1691.84908646722,0.311517390280518,87305,42611
1694.72619251415,0.320213873427163,74865,35815
1697.59896895263,0.321195901962237,64004,30550
1701.42260259077,0.32488860132935,52175,24693
