***Scan Config Information***,,,,,,,***Reference Scan Information***,,,,,,,,
Scan Config Name:,FolHerbario,,,,,,Scan Config Name:,Local New Reference,,,,,,,
Scan Config Type:,Slew,Num Section:,1,,,,Scan Config Type:,Slew,Num Section:,1,,,,,
Section Config Type:,Column,,,,,,Section Config Type:,Column,,,,,,,
Start Wavelength (nm):,900,,,,,,Start Wavelength (nm):,900,,,,,,,
End Wavelength (nm):,1700,,,,,,End Wavelength (nm):,1700,,,,,,,
Pattern Width (nm):,7.03,,,,,,Pattern Width (nm):,7.03,,,,,,,
Exposure (ms):,0.635,,,,,,Exposure (ms):,0.635,,,,,,,
Digital Resolution:,228,,,,,,Digital Resolution:,228,,,,,,,
Num Repeats:,20,,,,,,Num Repeats:,20,,,,,,,
PGA Gain:,64,(FixedPGA),,,,,PGA Gain:,64,(AutoPGA),,,,,,
System Temp (C):,39.73,,,,,,System Temp (C):,39.34,,,,,,,
Humidity (%):,43.52,,,,,,Humidity (%):,44.04,,,,,,,
Lamp ADC:,3083,3085,851,854,,,Lamp ADC:,3083,3085,851,853,,,,
Data Date-Time:,2025/04/03T11:05:46,,,,,,Data Date-Time:,2025/04/03T11:02:07,,,,,,,
Total Measurement Time in sec:,6.4724324,,,,,,,,,,,,,,
,,,,,,,,,,,,,,,
***General Information***,,,,,,,***Calibration Coefficients***,,,,,,,,
Model Name:,NIR-S-G1,,,,,,Shift Vector Coefficients:,-2.27453457587495,0.0384893477179632,-0.000120883834660424,,,,,
Serial Number:,C23R004,(95UB125GC0VC23R004),,,,,Pixel to Wavelength Coefficients:,1773.06832862561,-0.918144602406657,-0.000240533803363975,,,,,
GUI Version:,3.13.1,Revision:,930,,,,Versions (Cal/Ref/Cfg):,1,3,1,,,,,
TIVA Version:,2.4.10,,,,,,***Lamp Usage ***,,,,,,,,
DLPC Version:,2.3.1,,,,,,Total Time(hh:mm:ss):,9min 34sec ,,,,,,,
UUID:,DE:67:0C:88:67:66:73:21,,,,,,***Device/Error/Activation Status***,,,,,,,,
Main Board Version:,F,,,,,,Device Status:,0x00000001,Activation Status:,Activated,,,,,
Detector Board Version:,C,,,,,,Error status:,0x00000000,Error Code:,0x00000000000000000000000000000000,,,,,
,,,,,,,,,Error Details:,Not found,,,,,
***Scan Data***,,,,,,,,,,,,,,,
Wavelength (nm),Absorbance (AU),Reference Signal (unitless),Sample Signal (unitless)
900.860912737931,0.236637980204122,117592,68193
904.749703961815,0.233388118966826,126199,73734
909.9280239805,0.230912449673711,137990,81084
913.806712784643,0.229134585374162,148831,87813
917.681071980326,0.22713553175154,161963,96002
921.551101567548,0.223931849590665,177707,106114
925.41680154631,0.22252388546231,196779,117884
929.278171916611,0.219754245046059,217744,131278
933.135212678451,0.218888369542948,240260,145142
936.987923831831,0.216509577283681,261767,159003
942.118137089843,0.21329101953995,288002,176240
945.960745823482,0.21119227742098,305101,187608
949.79902494866,0.208495501166437,320218,198130
953.632974465377,0.207745805061195,334664,207426
957.462594373634,0.205415882415791,348451,217133
961.287884673431,0.20420822303142,361291,225761
965.108845364766,0.202332674162914,373820,234601
970.196724673387,0.200710381402194,390241,245823
974.007582944981,0.199268128529047,401711,253890
977.814111608115,0.198252232814326,412654,261417
981.616310662789,0.196920450422451,423135,268880
985.414180109002,0.196305257423312,432628,275302
989.207719946754,0.195013545553693,441261,281632
992.996930176046,0.19371299336162,449069,287475
996.781810796877,0.192904043652982,455928,292410
1001.82158334482,0.191777406013964,464549,298713
1005.59636154591,0.190788472953115,469792,302773
1009.36681013854,0.189973876641928,474247,306218
1013.13292912271,0.188773451688731,478030,309515
1016.89471849842,0.187751673474807,480808,312047
1020.65217826567,0.187370329095825,482980,313732
1024.40530842446,0.186706434382962,485069,315571
1028.15410897478,0.185772383398113,486369,317098
1033.14577476206,0.185331887064003,487684,318278
1036.88447289264,0.18454033896061,488070,319111
1040.61884141477,0.183611311395742,488422,320025
1044.34888032843,0.183448486355734,488869,320438
1048.07458963364,0.182902817332306,487571,319989
1051.79596933038,0.181971453179738,486043,319671
1055.51301941866,0.181759980123731,484697,318941
1059.22573989848,0.180640285879549,483596,319038
1064.16929892509,0.180187457075337,483089,319036
1067.87191698517,0.179884023536597,483546,319561
1071.57020543679,0.179203004792809,484491,320688
1075.26416427995,0.178363994166525,485679,322096
1078.95379351464,0.178200331361364,487249,323259
1082.63909314088,0.177788767223863,489230,324881
1086.32006315866,0.177680406076128,492271,326982
1091.22128823587,0.176886378922944,495037,329421
1094.89215583391,0.176588322305219,498743,332115
1098.55869382348,0.176091691350583,502313,334875
1102.2209022046,0.17599599617018,505983,337396
1105.87878097725,0.175591418579355,509731,340212
1109.53233014145,0.175607461943572,513635,342805
1113.18154969718,0.175474069663214,517881,345745
1116.82643964446,0.175353143286959,521452,348226
1121.67955796099,0.175316984713631,526781,351814
1125.31434548853,0.175807069028312,530870,354145
1128.9448034076,0.175951651847688,534977,356766
1132.57093171821,0.176506150738136,539342,359218
1136.19273042036,0.176917562806969,543448,361610
1139.81019951405,0.177519624966234,548038,364159
1143.42333899928,0.178407236828071,552219,366188
1147.03214887605,0.179263591137559,556544,368329
1151.83716043191,0.180490255200572,562764,371395
1155.43586788894,0.181493937524559,567254,373494
1159.03024573751,0.18259957465231,571593,375394
1162.62029397761,0.18378362696844,576827,377800
1166.20601260926,0.184576171518398,582113,380567
1169.78740163244,0.185958455002913,587142,382635
1173.36446104717,0.186758471600688,592343,385314
1176.93719085343,0.187254560513669,598162,388655
1181.69409564862,0.188913142393426,606079,392298
1185.25672303515,0.190067801241482,612507,395406
1188.81502081321,0.190427274331982,619183,399385
1192.36898898281,0.1905922127659,625670,403416
1195.91862754395,0.191333698862822,633404,407706
1199.46393649663,0.19110863600725,639936,412124
1203.00491584085,0.19091717383264,647343,417078
1206.54156557661,0.190263652547964,654464,422301
1211.25036361113,0.189379278002028,664743,429808
1214.77691092715,0.188500783841636,672338,435599
1218.29912863471,0.187122724260801,679638,441728
1221.8170167338,0.185787732977058,687378,448134
1225.33057522444,0.184695543752414,694801,454114
1228.83980410662,0.183771744143124,701731,459620
1232.34470338033,0.182663909458756,708715,465380
1237.01116746546,0.181482562780622,717140,472195
1240.50596431943,0.180806432372427,722980,476782
1243.99643156495,0.179874962005868,729210,481923
1247.482569202,0.179420415487839,736673,487365
1250.96437723059,0.178852690014596,745473,493832
1254.44185565073,0.17849788096872,753783,499745
1257.9150044624,0.178226562249351,761930,505462
1261.38382366561,0.177681233204667,769766,511302
1266.00218099006,0.177185334603981,779402,518294
1269.46089777353,0.177388870108908,785513,522113
1272.91528494854,0.177019700718164,791840,526766
1276.36534251509,0.17663567192236,797831,531221
1279.81107047318,0.176423014701992,803427,535209
1283.2524688228,0.176323632325242,808538,538737
1286.68953756397,0.176225090694083,813018,541845
1290.12227669668,0.175851911529214,817204,545103
1294.69252726046,0.17586237726189,822333,548511
1298.11516397342,0.175665172233614,825198,550672
1301.53347107793,0.175701580157869,828254,552665
1304.94744857397,0.175699457747051,830967,554478
1308.35709646156,0.175765963565436,832776,555600
1311.76241474068,0.175998873443457,834319,556331
1315.16340341134,0.176068142238157,835997,557361
1318.56006247354,0.176486176273156,837260,557666
1323.08220627665,0.176580768600911,837992,558032
1326.46876291911,0.177411725326645,837981,556958
1329.85098995311,0.178057113097814,838183,556265
1333.22888737865,0.178866058987534,838064,555151
1336.60245519573,0.179717023516685,837395,553622
1339.97169340435,0.180815093266382,836608,551705
1343.33660200451,0.181877564000676,834977,549284
1347.81641185822,0.184055218840942,832582,544969
1351.17121803864,0.185710958292596,829953,541181
1354.52169461059,0.187059368746063,825522,536623
1357.86784157409,0.188678282544208,822688,532791
1361.20965892912,0.190417031976192,819722,528749
1364.5471466757,0.191703310333056,817072,525481
1367.88030481381,0.193167735349836,815532,522725
1371.20913334347,0.194497232982806,813926,520101
1375.64083643651,0.196702918365606,810643,515379
1378.95956254642,0.198471231567983,805580,510079
1382.27395904787,0.200386742167139,799777,504176
1385.58402594086,0.203036527822035,794920,498066
1388.88976322539,0.205749363407836,789637,491675
1392.19117090146,0.209073667774278,782332,483412
1395.48824896907,0.213145887028278,775003,474414
1398.78099742822,0.217637495151302,769162,465994
1403.16459376059,0.225053439744682,762976,454420
1406.4472398,0.231899808108079,759591,445328
1409.72555623094,0.238505716870683,756859,437028
1412.99954305343,0.245890390856026,754899,428547
1416.26920026746,0.25313290793135,752942,420367
1419.53452787302,0.25983786671939,750994,412856
1422.79552587013,0.266097674891813,749588,406186
1426.05219425877,0.271936928565548,748600,400233
1430.38768383047,0.277907354161369,747723,394306
1433.63424979937,0.281937710330857,746803,390183
1436.87648615981,0.284987048821458,745874,386971
1440.11439291179,0.287060372636293,745568,384970
1443.34797005532,0.288442734848204,744576,383236
1446.57721759038,0.289582493828499,743149,381499
1449.80213551698,0.290284874059534,741991,380289
1453.02272383511,0.290391864929198,740634,379500
1457.31010664614,0.290410098213907,737720,377991
1460.52059254454,0.290506003041007,735230,376632
1463.72674883448,0.290450015147945,732549,375307
1466.92857551595,0.29022795108875,729416,373893
1470.12607258897,0.289720113151664,726235,372698
1473.31924005352,0.288899206265582,722977,371728
1476.50807790962,0.287945369413791,719229,370614
1480.75312677125,0.286374472019054,714335,369426
1483.93186220761,0.285334695650213,710040,368085
1487.1062680355,0.284282940451205,705640,366691
1490.27634425493,0.28328832261479,701263,365252
1493.44209086591,0.282103531174119,696580,363804
1496.60350786842,0.280311976668894,691428,362606
1499.76059526247,0.279056337445886,685960,360780
1502.91335304806,0.277367208675974,680587,359349
1507.11029514902,0.275255046061805,673050,357102
1510.25295051487,0.273552191079336,667234,355407
1513.39127627226,0.271888546336204,661195,353542
1516.52527242119,0.270665183872048,654186,350781
1519.65493896165,0.268358985110079,648089,349362
1522.78027589366,0.267118287940788,641157,346614
1525.90128321721,0.265846286637587,634315,343921
1529.01796093229,0.264462196829269,627250,341176
1533.16679627258,0.263333776580411,616958,336451
1536.27337156793,0.262179048528816,608831,332903
1539.37561725481,0.260749105638797,601301,329870
1542.47353333323,0.260160848241911,593100,325812
1545.5671198032,0.259155301960838,584431,321794
1548.6563766647,0.258367972968972,576072,317767
1551.74130391774,0.257308593862556,567422,313760
1554.82190156232,0.256468635405174,558391,309364
1558.92263014194,0.255692213786924,545785,302921
1561.99312536678,0.255262311713206,536823,298242
1565.05929098316,0.254249283151195,527125,293538
1568.12112699108,0.25326913345245,517693,288937
1571.17863339054,0.252957013933129,508394,283951
1574.23181018153,0.252461690659234,498835,278930
1577.28065736407,0.251518462693894,488650,273829
1580.32517493815,0.250673088803554,479279,269101
1584.37779675709,0.249865362110521,466163,262224
1587.41221191143,0.24892123678313,456292,257230
1590.4422974573,0.247869239057572,446234,252170
1593.46805339471,0.246502775425851,436095,247217
1596.48947972367,0.245006672947436,426463,242591
1599.50657644416,0.243976100798902,416664,237580
1602.5193435562,0.243086322787284,407111,232609
1606.52963142574,0.241542762386825,394322,226104
1609.53229611804,0.240292880188197,384600,221165
1612.53063120187,0.239038356536953,374885,216202
1615.52463667724,0.238365212540296,365674,211217
1618.51431254415,0.237399749793791,355850,206000
1621.4996588026,0.236579664968463,346113,200742
1624.48067545259,0.235473545533034,336331,195566
1627.45736249411,0.2346367333109,327048,190535
1631.41954360299,0.234287484059047,314114,183147
1634.38612822478,0.234105786679475,304989,177901
1637.3483832381,0.23369630482489,295886,172754
1640.30630864297,0.23345545155263,286800,167542
1643.25990443938,0.232777715526727,278072,162697
1646.20917062732,0.233511333962998,269744,157558
1649.15410720681,0.233418200843259,261121,152554
1652.09471417783,0.233798401728059,252395,147327
1656.00878852603,0.233412113063354,240552,140539
1658.93929307732,0.235311576435637,232158,135043
1661.86546802014,0.236404782895053,222859,129308
1664.7873133545,0.237915865949603,212785,123034
1667.7048290804,0.239563610097562,202122,116426
1670.61801519784,0.242015152428739,190303,109001
1673.52687170682,0.243629107477601,177201,101120
1676.43139860734,0.245466372846066,162846,92536
1680.29736619487,0.246937774450526,141231,79982
1683.19179067565,0.249670263608763,124561,70099
1686.08188554796,0.251411030214156,108655,60903
1688.96765081182,0.255967374936237,93575,51903
1691.84908646722,0.259132596548736,80056,44082
1694.72619251415,0.259327607463234,68433,37665
1697.59896895263,0.26713100918868,58658,31710
1701.42260259077,0.266408753506458,47914,25945
