***Scan Config Information***,,,,,,,***Reference Scan Information***,,,,,,,,
Scan Config Name:,FolHerbario,,,,,,Scan Config Name:,Local New Reference,,,,,,,
Scan Config Type:,Slew,Num Section:,1,,,,Scan Config Type:,Slew,Num Section:,1,,,,,
Section Config Type:,Column,,,,,,Section Config Type:,Column,,,,,,,
Start Wavelength (nm):,900,,,,,,Start Wavelength (nm):,900,,,,,,,
End Wavelength (nm):,1700,,,,,,End Wavelength (nm):,1700,,,,,,,
Pattern Width (nm):,7.03,,,,,,Pattern Width (nm):,7.03,,,,,,,
Exposure (ms):,0.635,,,,,,Exposure (ms):,0.635,,,,,,,
Digital Resolution:,228,,,,,,Digital Resolution:,228,,,,,,,
Num Repeats:,20,,,,,,Num Repeats:,20,,,,,,,
PGA Gain:,64,(FixedPGA),,,,,PGA Gain:,64,(AutoPGA),,,,,,
System Temp (C):,39.82,,,,,,System Temp (C):,39.82,,,,,,,
Humidity (%):,47.04,,,,,,Humidity (%):,46.46,,,,,,,
Lamp ADC:,3077,3079,831,849,,,Lamp ADC:,3077,3078,831,849,,,,
Data Date-Time:,2025/04/03T10:51:14,,,,,,Data Date-Time:,2025/04/03T10:48:24,,,,,,,
Total Measurement Time in sec:,6.4849976,,,,,,,,,,,,,,
,,,,,,,,,,,,,,,
***General Information***,,,,,,,***Calibration Coefficients***,,,,,,,,
Model Name:,NIR-S-G1,,,,,,Shift Vector Coefficients:,-5.74589567087503,0.0468271937173058,-9.53581739805986E-05,,,,,
Serial Number:,C23R002,(95UB125GC0VC23R002),,,,,Pixel to Wavelength Coefficients:,1756.1983651918,-0.919335509971685,-0.000241825006214287,,,,,
GUI Version:,3.13.1,Revision:,930,,,,Versions (Cal/Ref/Cfg):,1,3,1,,,,,
TIVA Version:,2.4.10,,,,,,***Lamp Usage ***,,,,,,,,
DLPC Version:,2.3.1,,,,,,Total Time(hh:mm:ss):,7min 52sec ,,,,,,,
UUID:,DE:67:0C:88:67:76:74:21,,,,,,***Device/Error/Activation Status***,,,,,,,,
Main Board Version:,F,,,,,,Device Status:,0x00000001,Activation Status:,Activated,,,,,
Detector Board Version:,C,,,,,,Error status:,0x00000000,Error Code:,0x00000000000000000000000000000000,,,,,
,,,,,,,,,Error Details:,Not found,,,,,
***Scan Data***,,,,,,,,,,,,,,,
Wavelength (nm),Absorbance (AU),Reference Signal (unitless),Sample Signal (unitless)
901.701099874012,0.450277610083164,91123,32311
905.577788882674,0.440822419808915,98413,35664
909.450125041225,0.438995778955795,106304,38686
913.318108349663,0.432745392307151,115828,42763
917.18173880799,0.425651216272473,126702,47548
921.041016416205,0.418823551281673,140037,53385
926.179948793651,0.411765316494212,162339,62901
930.029069751605,0.405614592209687,183031,71930
933.873837859447,0.401660046056173,205707,81581
937.714253117177,0.395369322371119,226975,91329
941.550315524795,0.391679409552446,244973,99412
945.382025082302,0.385611309119165,260465,107186
949.209381789697,0.38062944126016,273669,113919
954.305752966049,0.374339753357543,288655,121910
958.122953023182,0.369044059224619,299046,127848
961.935800230204,0.363839057681048,308611,133528
965.744294587114,0.35883973916365,317629,139021
969.548436093912,0.355689820726297,326761,144059
973.348224750598,0.350987991170936,334751,149188
977.143660557173,0.346771745947583,343352,154514
982.197470532431,0.341526472713728,354258,161359
985.982749688744,0.337602640138748,361798,166289
989.763675994946,0.332983458608187,369343,171572
993.540249451036,0.329242145373241,376225,176281
997.312470057013,0.326756902378009,383689,180810
1001.08033781288,0.323084818347794,390365,185518
1004.84385271863,0.31902482638924,396497,190202
1009.8551014928,0.314882409509525,404612,195955
1013.60845974829,0.311327926484585,409893,200144
1017.35746515367,0.308259073814726,414592,203874
1021.10211770894,0.305434243999198,418537,207157
1024.8424174141,0.302536299964792,422541,210539
1028.57836426914,0.299231427663031,425548,213657
1032.30995827408,0.296892754126131,428025,216061
1037.27864584715,0.293355879131294,430350,219011
1041.00008320182,0.290315161255798,432809,221810
1044.71716770638,0.287341646168883,434627,224272
1048.42989936083,0.284644560848269,435921,226341
1052.13827816517,0.282522190787891,437560,228305
1055.8423041194,0.279553989113993,439209,230737
1059.54197722351,0.276405160932394,440528,233114
1064.46810359549,0.274262951484159,441198,234623
1068.15762004934,0.271583826696161,439606,235223
1071.84278365308,0.270481483898803,436853,234344
1075.52359440671,0.268571253881597,433386,233509
1079.20005231022,0.266989504297958,431644,233419
1082.87215736363,0.265029204858194,430985,234117
1086.53990956692,0.26321258301393,431494,235376
1091.42347473781,0.26058168817258,433170,237726
1095.08107029084,0.259047658622414,435728,239976
1098.73431299376,0.257170084951943,438001,242273
1102.38320284657,0.256006005270328,441713,244982
1106.02773984926,0.254530878305274,445376,247854
1109.66792400185,0.252874349797873,448997,250824
1113.30375530432,0.251310984261924,453671,254349
1118.14475927411,0.249801958187649,460048,258822
1121.77043392632,0.248279263445515,465204,262642
1125.39175572842,0.247287999452643,470341,266149
1129.00872468041,0.246721828275728,475916,269655
1132.62134078229,0.24549770213088,481713,273710
1136.22960403405,0.244783030597973,487480,277443
1139.83351443571,0.243647399250983,492833,281224
1144.6319572044,0.242570674025342,500813,286487
1148.22571095579,0.241677790936273,506213,290172
1151.81511185707,0.240960359142775,511832,293878
1155.40015990824,0.240833282489459,517529,297236
1158.9808551093,0.24027637550924,523651,301138
1162.55719746024,0.23966549388139,529418,304883
1166.12918696107,0.23879179049308,534766,308583
1170.88506852868,0.237903261063284,542315,313580
1174.44690137925,0.237555069068167,548561,317446
1178.00438137971,0.237002663019823,554434,321253
1181.55750853005,0.236304177177106,560375,325218
1185.10628283029,0.235978680735961,566937,329273
1188.65070428041,0.235271259450726,573289,333505
1192.19077288043,0.234358947653672,580011,338125
1196.90409324693,0.233529590360132,588761,343882
1200.43400519669,0.232909307415497,595674,348417
1203.95956429632,0.231766840647722,602669,353437
1207.48077054585,0.231167980239465,609554,357968
1210.99762394527,0.230575352773804,616676,362645
1214.51012449457,0.229639129507585,623783,367616
1218.01827219376,0.228896647969978,631033,372525
1222.68903135918,0.227748366780848,640676,379219
1226.18702240811,0.226690057437677,646844,383804
1229.68066060693,0.22589281593848,654217,388892
1233.16994595564,0.225336099569818,661393,393662
1236.65487845423,0.224445906552861,669537,399327
1240.13545810271,0.223722343784668,679239,405789
1243.61168490109,0.222677793753799,689520,412923
1248.23988286541,0.22218150100134,702011,420884
1251.70595301352,0.221573525490516,709860,426186
1255.16767031152,0.22057574948552,716859,431378
1258.6250347594,0.220612247539805,724722,436073
1262.07804635718,0.220114171345654,731051,440386
1265.52670510484,0.219098710126454,736952,444980
1268.97101100239,0.218913258233367,743082,448873
1273.55664776562,0.21836558197507,751854,454745
1276.99079701291,0.217957355708027,757474,458575
1280.42059341009,0.217231204059441,762465,462369
1283.84603695715,0.217084404642103,768038,465906
1287.26712765411,0.216487597777216,773313,469751
1290.68386550095,0.216241093225165,778455,473143
1294.09625049768,0.21593026824532,783174,476352
1298.63932605982,0.215439472194711,789852,480957
1302.04155440629,0.215035489946647,794153,484026
1305.43942990264,0.214874583289595,798666,486957
1308.83295254889,0.214768780040557,802474,489398
1312.22212234502,0.214577207781854,806252,491919
1315.60693929105,0.214298255123714,810142,494610
1320.11325745224,0.21413254300803,814162,497254
1323.487917748,0.214184673659343,816323,498514
1326.85822519365,0.21432171845574,819172,500096
1330.22417978919,0.214312034687796,821614,501598
1333.58578153461,0.214412184249558,823260,502487
1336.94303042993,0.214715724909487,824516,502902
1340.29592647513,0.214990218091689,826061,503526
1344.75968343522,0.215327846532383,826843,503611
1348.10242283016,0.216042337828342,826527,502591
1351.44080937499,0.216440819378449,825401,501446
1354.77484306971,0.216861991713349,823620,499879
1358.10452391432,0.21703356638594,821534,498416
1361.42985190881,0.217456017807929,819532,496718
1364.75082705319,0.217798317160599,818882,495933
1369.17202281219,0.218556248953965,819922,495697
1372.48284130632,0.218919068812632,819465,495007
1375.78930695032,0.219248731217546,817357,493359
1379.09141974422,0.220292454926986,814315,490343
1382.38917968801,0.221038316802396,810922,487462
1385.68258678168,0.222320181501335,808045,484301
1388.97164102524,0.223802906823112,804840,480736
1393.35027558315,0.226341856830702,799455,474736
1396.62917317645,0.228201281874904,795618,470439
1399.90371791964,0.230777236635669,793449,466382
1403.17390981272,0.233587393220317,792134,462606
1406.43974885568,0.236894845128592,792639,459389
1409.70123504853,0.240515458833041,793768,456224
1412.95836839128,0.244147692750761,793757,452418
1417.29444174809,0.248861130392102,793774,447544
1420.54141844057,0.251907036401842,794022,444555
1423.78404228294,0.254325915429409,793866,441999
1427.0223132752,0.257192252765243,793538,438910
1430.25623141734,0.259320741648275,792533,436211
1433.48579670937,0.260337994582106,792086,434945
1436.71100915129,0.261943286298278,791029,432762
1441.00452130702,0.262676140467957,789516,431206
1444.21957709868,0.263303054954545,788249,429893
1447.43028004022,0.263444613310915,786072,428566
1450.63663013166,0.263479974778964,783999,427401
1453.83862737298,0.263369382096391,781375,426079
1457.0362717642,0.263563578683768,778389,424261
1460.2295633053,0.263288429238749,774779,422561
1464.48051425993,0.263221786879756,769934,419983
1467.66364915076,0.262873793705881,765749,418035
1470.84243119149,0.26264999456074,761929,416164
1474.01686038211,0.261768420887667,757371,414515
1477.18693672261,0.261356906153921,752521,412251
1480.35266021301,0.260776531816283,747305,409941
1483.51403085329,0.260144551352837,741582,407394
1487.72242060682,0.259400869024522,734351,404113
1490.87363459684,0.258909631345787,728217,401191
1494.02049573675,0.258032526837216,721922,398527
1497.16300402654,0.257412897187734,715618,395611
1500.30115946623,0.256671048656142,709530,392916
1503.4349620558,0.256168552626898,702732,389602
1506.56441179526,0.254981949356997,695402,386593
1510.7302403477,0.253937275733193,686085,382332
1513.8495334369,0.253128744863063,678402,378755
1516.96447367598,0.252055098341384,669539,374732
1520.07506106496,0.250927883512856,661404,371141
1523.18129560382,0.250427520612147,653905,367356
1526.28317729258,0.249771236961295,645826,363366
1529.38070613122,0.248969137154825,636722,358906
1533.50397348256,0.247919672273067,625301,353321
1536.59134567094,0.247676861259976,617022,348838
1539.67436500921,0.247059385774687,607699,344056
1542.75303149736,0.246546557722264,598489,339242
1545.82734513541,0.24601242561847,589493,334554
1548.89730592334,0.245726112760404,579948,329354
1551.96291386116,0.245414732246216,570034,323956
1556.04362001141,0.244553074605892,556513,316900
1559.09907129897,0.244370076965471,546710,311449
1562.15016973641,0.243955411322883,536592,305977
1565.19691532375,0.243895811133055,526450,300235
1568.23930806097,0.244123978395097,516253,294265
1571.27734794808,0.243882411053793,506480,288855
1574.31103498508,0.243855846861223,496471,283164
1578.34917993424,0.242945354079095,482526,275788
1581.37271032098,0.242595639893414,472428,270234
1584.39188785761,0.242350364943871,462389,264641
1587.40671254412,0.241830002501535,452073,259047
1590.41718438052,0.241583224759111,441592,253185
1593.42330336681,0.240908349264866,430698,247323
1596.42506950299,0.240141126141772,420495,241891
1600.42065325106,0.239416285643598,406960,234496
1603.41226273698,0.239689519293245,396960,228590
1606.39951937278,0.239133443590461,386797,223023
1609.38242315848,0.238837941846715,377083,217570
1612.36097409406,0.238164186064599,367102,212140
1615.33517217953,0.237993101516418,357236,206520
1618.30501741489,0.237718522329404,347696,201132
1622.25803996186,0.237698712721114,335222,193925
1625.21772854696,0.237440956060941,325587,188463
1628.17306428194,0.236661315846547,316115,183309
1631.12404716682,0.236895315296863,306799,177811
1634.07067720158,0.236447447248112,297525,172614
1637.01295438623,0.236813263182633,288474,167222
1639.95087872077,0.236620562755774,278826,161701
1643.86134006665,0.23748421655832,266447,154215
1646.78910775092,0.238233121505559,257007,148495
1649.71252258509,0.237430097009738,247701,143383
1652.63158456914,0.238802612747773,238593,137675
1655.54629370308,0.238541169950093,229890,132733
1658.45664998691,0.239433924417469,221340,127534
1661.36265342063,0.239963713219778,212133,122080
1665.23055356542,0.240660310180151,199455,114600
1668.12640034887,0.242082152256606,189475,108510
1671.01789428222,0.242249962737263,178524,102199
1673.90503536545,0.243436864576306,166415,95007
1676.78782359857,0.241803983228408,152605,87451
1679.66625898158,0.242627788823377,138609,79280
1682.54034151448,0.245493710302187,123705,70290
1686.36568045817,0.245228109704479,103626,58917
1689.22960634081,0.246431053540764,89338,50653
1692.08917937333,0.246752275000458,76064,43095
1694.94439955575,0.247640840299701,64644,36550
1697.79526688805,0.244337018318679,54746,31190
1700.64178137024,0.245903887004115,46601,26454
