***Scan Config Information***,,,,,,,***Reference Scan Information***,,,,,,,,
Scan Config Name:,FolHerbario,,,,,,Scan Config Name:,Local New Reference,,,,,,,
Scan Config Type:,Slew,Num Section:,1,,,,Scan Config Type:,Slew,Num Section:,1,,,,,
Section Config Type:,Column,,,,,,Section Config Type:,Column,,,,,,,
Start Wavelength (nm):,900,,,,,,Start Wavelength (nm):,900,,,,,,,
End Wavelength (nm):,1700,,,,,,End Wavelength (nm):,1700,,,,,,,
Pattern Width (nm):,7.03,,,,,,Pattern Width (nm):,7.03,,,,,,,
Exposure (ms):,0.635,,,,,,Exposure (ms):,0.635,,,,,,,
Digital Resolution:,228,,,,,,Digital Resolution:,228,,,,,,,
Num Repeats:,20,,,,,,Num Repeats:,20,,,,,,,
PGA Gain:,64,(FixedPGA),,,,,PGA Gain:,64,(AutoPGA),,,,,,
System Temp (C):,41.73,,,,,,System Temp (C):,41.31,,,,,,,
Humidity (%):,44.36,,,,,,Humidity (%):,42.96,,,,,,,
Lamp ADC:,3066,3082,829,851,,,Lamp ADC:,3066,3082,829,851,,,,
Data Date-Time:,2025/04/03T11:11:56,,,,,,Data Date-Time:,2025/04/03T11:09:01,,,,,,,
Total Measurement Time in sec:,6.4848244,,,,,,,,,,,,,,
,,,,,,,,,,,,,,,
***General Information***,,,,,,,***Calibration Coefficients***,,,,,,,,
Model Name:,NIR-S-G1,,,,,,Shift Vector Coefficients:,0.392694521123758,0.0064508848494657,-3.36963000867986E-05,,,,,
Serial Number:,C23R003,(95UB125GC0VC23R003),,,,,Pixel to Wavelength Coefficients:,1737.96619343203,-0.927679554192883,-0.000240514673521399,,,,,
GUI Version:,3.13.1,Revision:,930,,,,Versions (Cal/Ref/Cfg):,1,3,1,,,,,
TIVA Version:,2.4.10,,,,,,***Lamp Usage ***,,,,,,,,
DLPC Version:,2.3.1,,,,,,Total Time(hh:mm:ss):,12min 0sec ,,,,,,,
UUID:,DE:67:0C:88:67:47:5F:21,,,,,,***Device/Error/Activation Status***,,,,,,,,
Main Board Version:,F,,,,,,Device Status:,0x00000001,Activation Status:,Activated,,,,,
Detector Board Version:,C,,,,,,Error status:,0x00000000,Error Code:,0x00000000000000000000000000000000,,,,,
,,,,,,,,,Error Details:,Not found,,,,,
***Scan Data***,,,,,,,,,,,,,,,
Wavelength (nm),Reflectance (unitless)
901.114121469303,0.562772458167558
904.983805426851,0.565748534661319
908.849160120276,0.574098336340939
913.996231967317,0.580952666671667
917.851485044454,0.586748255620777
921.702408857468,0.592081853350302
925.549003406358,0.596955404071702
929.391268691125,0.602895601571868
933.229204711769,0.605932024190479
937.062811468289,0.610324533089858
942.16755273279,0.617310965232191
945.991057873023,0.621574680893318
949.810233749132,0.625971196077764
953.625080361117,0.630032416268713
957.435597708979,0.633981543022889
961.241785792718,0.638193865461407
966.309968826844,0.641908157483797
970.106055294295,0.644931568116413
973.897812497622,0.64794200597058
977.685240436826,0.650935595734445
981.468339111907,0.653666428787894
985.247108522864,0.656555826935661
989.021548669698,0.659642613533103
994.047401121285,0.663808021882937
997.811739651831,0.665884040656576
1001.57174891825,0.668478733383668
1005.32742892055,0.671135080429168
1009.07877965873,0.673922184064529
1012.82580113278,0.675971632233463
1016.56849334271,0.678876775536054
1021.55201521176,0.681953609798364
1025.2846058054,0.684171924129548
1029.01286713492,0.686169983606148
1032.73679920031,0.688412925975321
1036.45640200158,0.690019799543859
1040.17167553873,0.692475786167101
1045.1186391774,0.695220962812022
1048.82381109826,0.696325343432229
1052.524653755,0.697953305516247
1056.22116714761,0.700072578816058
1059.9133512761,0.701555924306875
1063.60120614046,0.70352733686067
1067.28473174071,0.703622539140169
1072.18936479684,0.706362549335155
1075.86278878079,0.70732422618328
1079.53188350063,0.708837165800409
1083.19664895633,0.710787713346879
1086.85708514792,0.711403934368384
1090.51319207538,0.712364675121333
1094.16496973872,0.713856121478325
1099.02727221231,0.715229476293122
1102.66894825936,0.716546706322739
1106.30629504229,0.717143870300939
1109.93931256109,0.718395453196057
1113.56800081577,0.717750203878944
1117.19235980633,0.718821286701669
1120.81238953276,0.719218547622934
1125.63236142381,0.719613951628181
1129.24228953396,0.720179644479806
1132.84788837998,0.719225178774463
1136.44915796188,0.719531928982328
1140.04609827965,0.717840643803637
1143.6387093333,0.717779706888628
1148.42212299398,0.717067907669698
1152.00463243134,0.716275801140471
1155.58281260458,0.714605954186923
1159.1566635137,0.714169194552406
1162.72618515869,0.713116406123116
1166.29137753957,0.712082785184382
1169.85224065631,0.710936615922835
1174.59332373445,0.709512351073932
1178.14408523491,0.708834237952123
1181.69051747124,0.708191384801839
1185.23262044346,0.70749754120646
1188.77039415154,0.707709134416139
1192.30383859551,0.707355573608176
1195.83295377535,0.707918073768694
1200.53170627095,0.708963294094957
1204.0507198345,0.709563846200901
1207.56540413393,0.710261744674151
1211.07575916924,0.711450702037876
1214.58178494043,0.711911840165503
1218.08348144749,0.713579277106882
1222.74567571271,0.715729223089082
1226.23727060348,0.716944768870923
1229.72453623013,0.719199777974514
1233.20747259266,0.720447152103461
1236.68607969106,0.721464415300348
1240.16035752534,0.722702215035129
1243.63030609549,0.72315747080145
1248.25016977818,0.724495219379898
1251.71001673204,0.725384496565641
1255.16553442179,0.726624384631213
1258.61672284741,0.72715766409424
1262.06358200891,0.727276706273056
1265.50611190628,0.727520244039217
1268.94431253953,0.728017202615291
1273.52184563968,0.728678989176963
1276.94994465664,0.729346557298432
1280.37371440948,0.729607197390475
1283.79315489819,0.730267813472365
1287.20826612279,0.730631397551206
1290.61904808326,0.731086037288271
1295.16002295302,0.731269764747555
1298.56070329721,0.731819804201509
1301.95705437726,0.731544707798358
1305.3490761932,0.731942471388399
1308.73676874501,0.731721816693882
1312.1201320327,0.731322383340657
1315.49916605626,0.731138855831082
1319.99781034349,0.730623841161441
1323.36674275077,0.729903881281415
1326.73134589392,0.728940720908775
1330.09161977295,0.727924118175124
1333.44756438786,0.726913919217486
1336.79917973864,0.724770074361886
1340.1464658253,0.723103746040107
1344.60277952999,0.719701818551255
1347.93996400036,0.71714186724275
1351.27281920661,0.714725119502134
1354.60134514873,0.712100961092741
1357.92554182674,0.709358757552293
1361.24540924061,0.707699012013243
1364.56094739037,0.704968421217496
1368.97493051252,0.702327762474179
1372.28036704598,0.70000682796419
1375.58147431533,0.698079050455746
1378.87825232055,0.695995900447791
1382.17070106165,0.692794508165814
1385.45882053862,0.689329751789315
1389.83624543039,0.683166797903826
1393.11426329108,0.677924201642398
1396.38795188764,0.671116412279911
1399.65731122008,0.663312494827777
1402.92234128839,0.654293681403541
1406.18304209259,0.644178386454468
1409.43941363266,0.633365555735899
1413.77450794189,0.618391705520624
1417.02077786567,0.607492366428729
1420.26271852533,0.596993843698917
1423.50032992086,0.588079347797836
1426.73361205227,0.579881648260247
1429.96256491956,0.573451281414221
1433.18718852272,0.567691129510021
1437.47995224942,0.562635380106798
1440.69447423629,0.559952963869938
1443.90466695905,0.558559708692088
1447.11053041767,0.556829579581762
1450.31206461218,0.555990687401476
1453.50926954256,0.555629900496277
1457.76547503888,0.555520838375881
1460.95257835298,0.55571879918185
1464.13535240295,0.555835985493302
1467.31379718879,0.55671751327485
1470.48791271052,0.558074953504369
1473.65769896812,0.558811820271077
1476.8231559616,0.560201100556352
1481.03703087538,0.562205803035132
1484.19238625257,0.564527121527998
1487.34341236563,0.56631915450478
1490.49010921458,0.568287078844912
1493.63247679939,0.569899460927977
1496.77051512009,0.571903726076775
1499.90422417666,0.573888857445484
1504.0757685079,0.576489799665864
1507.19937594819,0.579243211326288
1510.31865412435,0.580860463124808
1513.43360303639,0.58262477145906
1516.5442226843,0.584732114405794
1519.65051306809,0.586585291425084
1522.75247418776,0.587867292210983
1526.88168793646,0.590239853361926
1529.97354743984,0.591806002035889
1533.0610776791,0.592916954323765
1536.14427865423,0.59461738259477
1539.22315036524,0.595050138272853
1542.29769281213,0.595794447127744
1546.39034833045,0.597161791818227
1549.45478916105,0.597807213274372
1552.51490072752,0.598941700513647
1555.57068302988,0.598784066556357
1558.6221360681,0.600486606510134
1561.66925984221,0.600268412882943
1564.71205435219,0.600545705029016
1568.76237928798,0.60181676722842
1571.79507218167,0.601964755354908
1574.82343581124,0.602370924972703
1577.84747017669,0.603449248558316
1580.86717527801,0.604486105283786
1583.88255111521,0.60455379114415
1586.89359768829,0.60550181219457
1590.90159204153,0.606823623412518
1593.90253699832,0.607748960226576
1596.89915269099,0.608527552664967
1599.89143911953,0.611078816490221
1602.87939628395,0.612370872755358
1605.86302418424,0.613144516616408
1609.83446030711,0.615641706929496
1612.80798659112,0.615523352207481
1615.777183611,0.616102807083326
1618.74205136676,0.617568744818671
1621.7025898584,0.618599272010093
1624.65879908592,0.618865099565803
1627.61067904931,0.619405580892015
1631.53978458964,0.619832375169563
1634.48156293674,0.620163842704323
1637.41901201972,0.620345925673077
1640.35213183857,0.620498230828759
1643.28092239331,0.619760659368152
1646.20538368392,0.619261735938971
1649.1255157104,0.620085199039139
1653.01229066819,0.617688109980061
1655.92232107839,0.615714878016846
1658.82802222446,0.614000568666477
1661.72939410641,0.612857584476732
1664.62643672424,0.610677262010204
1667.51915007795,0.608553888310696
1671.36936680536,0.604400769066439
1674.25197854278,0.601383000743631
1677.13026101607,0.596700535161174
1680.00421422524,0.597329800244598
1682.87383817029,0.593610597465551
1685.73913285121,0.592939858940145
1688.60009826801,0.590851158151391
1692.40798441288,0.583220498757391
1695.25884821339,0.593205149095649
1698.10538274978,0.586368779642247
1700.94758802205,0.588499114437525
