***Scan Config Information***,,,,,,,***Reference Scan Information***,,,,,,,,
Scan Config Name:,FolHerbario,,,,,,Scan Config Name:,Local New Reference,,,,,,,
Scan Config Type:,Slew,Num Section:,1,,,,Scan Config Type:,Slew,Num Section:,1,,,,,
Section Config Type:,Column,,,,,,Section Config Type:,Column,,,,,,,
Start Wavelength (nm):,900,,,,,,Start Wavelength (nm):,900,,,,,,,
End Wavelength (nm):,1700,,,,,,End Wavelength (nm):,1700,,,,,,,
Pattern Width (nm):,7.03,,,,,,Pattern Width (nm):,7.03,,,,,,,
Exposure (ms):,0.635,,,,,,Exposure (ms):,0.635,,,,,,,
Digital Resolution:,228,,,,,,Digital Resolution:,228,,,,,,,
Num Repeats:,20,,,,,,Num Repeats:,20,,,,,,,
PGA Gain:,64,(FixedPGA),,,,,PGA Gain:,64,(AutoPGA),,,,,,
System Temp (C):,38.84,,,,,,System Temp (C):,38.05,,,,,,,
Humidity (%):,50.36,,,,,,Humidity (%):,52.39,,,,,,,
Lamp ADC:,3066,3081,829,851,,,Lamp ADC:,3066,3082,829,851,,,,
Data Date-Time:,2025/04/03T10:18:16,,,,,,Data Date-Time:,2025/04/03T10:14:12,,,,,,,
Total Measurement Time in sec:,6.4869669,,,,,,,,,,,,,,
,,,,,,,,,,,,,,,
***General Information***,,,,,,,***Calibration Coefficients***,,,,,,,,
Model Name:,NIR-S-G1,,,,,,Shift Vector Coefficients:,0.392694521123758,0.0064508848494657,-3.36963000867986E-05,,,,,
Serial Number:,C23R003,(95UB125GC0VC23R003),,,,,Pixel to Wavelength Coefficients:,1737.96619343203,-0.927679554192883,-0.000240514673521399,,,,,
GUI Version:,3.13.1,Revision:,930,,,,Versions (Cal/Ref/Cfg):,1,3,1,,,,,
TIVA Version:,2.4.10,,,,,,***Lamp Usage ***,,,,,,,,
DLPC Version:,2.3.1,,,,,,Total Time(hh:mm:ss):,5min 58sec ,,,,,,,
UUID:,DE:67:0C:88:67:47:5F:21,,,,,,***Device/Error/Activation Status***,,,,,,,,
Main Board Version:,F,,,,,,Device Status:,0x00000001,Activation Status:,Activated,,,,,
Detector Board Version:,C,,,,,,Error status:,0x00000000,Error Code:,0x00000000000000000000000000000000,,,,,
,,,,,,,,,Error Details:,Not found,,,,,
***Scan Data***,,,,,,,,,,,,,,,
Wavelength (nm),Absorbance (AU),Reference Signal (unitless),Sample Signal (unitless)
901.114121469303,0.263584216868356,104355,56876
904.983805426851,0.261952674797425,112723,61668
908.849160120276,0.263157706363606,121017,66022
913.996231967317,0.26341271130807,133147,72597
917.851485044454,0.262001004125624,144508,79048
921.702408857468,0.262669076157953,158607,86627
925.549003406358,0.262517425409132,175209,95728
929.391268691125,0.261475819221377,194047,106275
933.229204711769,0.260629962519076,214107,117490
937.062811468289,0.261303964467377,234354,128401
942.16755273279,0.259652670731201,259611,142781
945.991057873023,0.258721042096315,277073,152712
949.810233749132,0.258317792636273,293438,161882
953.625080361117,0.257685002006935,309482,170982
957.435597708979,0.257225198203883,325357,179943
961.241785792718,0.256742808425322,340792,188689
966.309968826844,0.256203778330905,360311,199744
970.106055294295,0.255919672812397,373527,207206
973.897812497622,0.255827607632367,385954,214145
977.685240436826,0.255110490458306,396653,220445
981.468339111907,0.25496391738659,406583,226040
985.247108522864,0.254615333105858,414438,230592
989.021548669698,0.254389957986777,420803,234255
994.047401121285,0.254133216691589,426915,237798
997.811739651831,0.253220607776335,430546,240325
1001.57174891825,0.252553308657091,433924,242583
1005.32742892055,0.252383332578169,435013,243287
1009.07877965873,0.252439920147921,436672,244183
1012.82580113278,0.251612292157495,437995,245390
1016.56849334271,0.251253794979165,438709,245993
1021.55201521176,0.250496543350247,438299,246192
1025.2846058054,0.250280351031085,437983,246137
1029.01286713492,0.250502679225193,437399,245683
1032.73679920031,0.249965836714727,436375,245411
1036.45640200158,0.249990553707157,435749,245045
1040.17167553873,0.249283519373029,436061,245620
1045.1186391774,0.248733562519109,436495,246176
1048.82381109826,0.248667684942828,436076,245977
1052.524653755,0.248410534982437,436174,246178
1056.22116714761,0.248105964448646,437444,247068
1059.9133512761,0.247913025040926,438508,247779
1063.60120614046,0.247752079998395,439177,248249
1067.28473174071,0.247186346255385,439812,248932
1072.18936479684,0.246878992627659,441420,250019
1075.86278878079,0.246675445350157,443292,251197
1079.53188350063,0.24683815392796,445942,252604
1083.19664895633,0.24676291586338,448470,254080
1086.85708514792,0.246100366189999,450370,255546
1090.51319207538,0.246030272218776,451307,256119
1094.16496973872,0.246274378942544,453010,256941
1099.02727221231,0.245277362717994,454944,258631
1102.66894825936,0.245308023102223,457351,259981
1106.30629504229,0.245118703936612,459260,261180
1109.93931256109,0.245242122374822,461656,262468
1113.56800081577,0.245315041110594,463929,263716
1117.19235980633,0.244569294823287,466173,265447
1120.81238953276,0.244811957937445,468507,266627
1125.63236142381,0.244569601680216,471477,268467
1129.24228953396,0.244756332118171,474526,270087
1132.84788837998,0.245319105237445,476992,271139
1136.44915796188,0.245124691082746,479956,272946
1140.04609827965,0.245544068086128,482993,274408
1143.6387093333,0.245642469446444,486289,276218
1148.42212299398,0.246151952769976,490630,278357
1152.00463243134,0.24686519046371,494865,280299
1155.58281260458,0.246629716904147,498724,282638
1159.1566635137,0.247035143416533,503033,284814
1162.72618515869,0.247054651071114,507526,287345
1166.29137753957,0.248003424807174,512817,289707
1169.85224065631,0.247962431818966,517882,292596
1174.59332373445,0.248399202039702,525405,296548
1178.14408523491,0.249194027482179,531593,299492
1181.69051747124,0.249644260798711,538246,302926
1185.23262044346,0.249651270926561,544694,306550
1188.77039415154,0.250001342469174,551311,310024
1192.30383859551,0.250020737825552,558883,314268
1195.83295377535,0.250517676959437,566705,318302
1200.53170627095,0.250542067142848,577386,324283
1204.0507198345,0.25040366004783,585169,328759
1207.56540413393,0.250470437886786,593496,333386
1211.07575916924,0.250499266311239,601878,338072
1214.58178494043,0.250380233598896,610210,342846
1218.08348144749,0.250318255299202,617647,347074
1222.74567571271,0.249373308019051,627797,353546
1226.23727060348,0.249635298056266,634853,357304
1229.72453623013,0.24926402932487,641353,361271
1233.20747259266,0.248660789334269,648857,366006
1236.68607969106,0.249030910923879,658461,371107
1240.16035752534,0.248472745594346,669052,377561
1243.63030609549,0.248710921114818,679011,382971
1248.25016977818,0.248000682058842,692119,391003
1251.71001673204,0.247964452248106,701635,396412
1255.16553442179,0.248135233085818,710913,401496
1258.61672284741,0.247866042664896,718931,406276
1262.06358200891,0.247773545052184,726856,410842
1265.50611190628,0.247749169755352,734072,414944
1268.94431253953,0.24788947455309,740841,418635
1273.52184563968,0.247870092905011,748925,423222
1276.94994465664,0.247773993231637,754725,426594
1280.37371440948,0.248017262821551,760115,429400
1283.79315489819,0.247669391716992,764749,432364
1287.20826612279,0.247803433251388,768667,434445
1290.61904808326,0.247840734731818,772709,436692
1295.16002295302,0.247778297064618,777580,439508
1298.56070329721,0.247361537592506,780249,441440
1301.95705437726,0.247643029628078,782069,442183
1305.3490761932,0.247830110846145,784938,443614
1308.73676874501,0.247672696362696,786463,444637
1312.1201320327,0.247798613941311,787305,444984
1315.49916605626,0.247917944062979,788116,445320
1319.99781034349,0.248124249430192,788772,445479
1323.36674275077,0.248629371562892,789323,445272
1326.73134589392,0.248409420298976,788631,445107
1330.09161977295,0.248760227199917,788559,444707
1333.44756438786,0.249257148487967,788070,443923
1336.79917973864,0.249480426132564,787184,443196
1340.1464658253,0.250170537080395,785513,441553
1344.60277952999,0.250549275592766,782680,439577
1347.93996400036,0.251322042154974,780387,437510
1351.27281920661,0.252159732641204,777265,434920
1354.60134514873,0.252415026455693,772032,431738
1357.92554182674,0.253037868160922,767286,428469
1361.24540924061,0.253394771201678,763766,426153
1364.56094739037,0.254017715180198,760894,423942
1368.97493051252,0.254818207879622,758261,421697
1372.28036704598,0.255100437708928,756539,420466
1375.58147431533,0.255661769888276,753644,418316
1378.87825232055,0.256346437551889,748411,414757
1382.17070106165,0.257095599459953,742988,411042
1385.45882053862,0.258127718883553,738523,407602
1389.83624543039,0.259469749933583,731943,402724
1393.11426329108,0.26102410031761,724539,397226
1396.38795188764,0.262402554268199,716246,391435
1399.65731122008,0.263931562884591,708625,385909
1402.92234128839,0.266343523298085,701476,379900
1406.18304209259,0.26858539903873,695611,374784
1409.43941363266,0.271825325974587,692220,370185
1413.77450794189,0.27571034418487,690063,365745
1417.02077786567,0.278361324613725,689531,363239
1420.26271852533,0.281547771627804,688958,360284
1423.50032992086,0.284286210806969,688786,357930
1426.73361205227,0.286732467335134,688783,355918
1429.96256491956,0.289145359177388,688816,353963
1433.18718852272,0.291000668844011,687952,352012
1437.47995224942,0.292640376047584,686623,350008
1440.69447423629,0.293959775415553,686589,348929
1443.90466695905,0.294557228894812,685282,347786
1447.11053041767,0.295002654526102,684068,346814
1450.31206461218,0.29530577976943,682181,345616
1453.50926954256,0.296022429939224,680775,344335
1457.76547503888,0.296346335766081,677587,342467
1460.95257835298,0.29658312994186,674609,340776
1464.13535240295,0.29694952086036,671616,338978
1467.31379718879,0.296811163767655,667619,337068
1470.48791271052,0.296797415191867,663704,335102
1473.65769896812,0.296772760701228,659131,332812
1476.8231559616,0.29641461120773,654531,330762
1481.03703087538,0.2964369712301,648705,327801
1484.19238625257,0.29644502757242,643538,325184
1487.34341236563,0.295820232237359,638291,322997
1490.49010921458,0.296201945053404,632703,319888
1493.63247679939,0.295781626830647,627070,317347
1496.77051512009,0.295222742668243,620882,314620
1499.90422417666,0.294980825713932,614850,311737
1504.0757685079,0.294365230187839,605902,307636
1507.19937594819,0.293919074757621,599275,304584
1510.31865412435,0.293578277405102,592040,301143
1513.43360303639,0.292915462098312,584622,297824
1516.5442226843,0.292759827774128,576846,293968
1519.65051306809,0.291948897547807,569802,290921
1522.75247418776,0.291460656120783,562015,287268
1526.88168793646,0.291648383083021,551908,281980
1529.97354743984,0.291251112108519,543691,278036
1533.0610776791,0.290996212503927,535285,273898
1536.14427865423,0.290469900046169,527108,270041
1539.22315036524,0.29074326302825,518799,265617
1542.29769281213,0.290096191688529,509931,261466
1546.39034833045,0.290480579820477,498610,255435
1549.45478916105,0.289867082420963,489731,251241
1552.51490072752,0.289962389041512,481024,246720
1555.57068302988,0.289872933572485,472007,242145
1558.6221360681,0.28968158448001,462737,237494
1561.66925984221,0.290254508118796,454067,232737
1564.71205435219,0.289364066279832,444835,228473
1568.76237928798,0.29049293896791,432791,221710
1571.79507218167,0.290215782007535,423666,217174
1574.82343581124,0.290546135863838,414141,212130
1577.84747017669,0.290555469355227,404847,207365
1580.86717527801,0.290159238247731,395751,202891
1583.88255111521,0.290049165899339,386423,198159
1586.89359768829,0.289774358902759,377440,193675
1590.90159204153,0.289870021727844,365120,187312
1593.90253699832,0.289860947331923,355914,182593
1596.89915269099,0.28923405035235,347360,178462
1599.89143911953,0.288733303458818,338419,174069
1602.87939628395,0.288484486881258,329155,169401
1605.86302418424,0.289021014295131,320570,164779
1609.83446030711,0.287928338734805,308352,158898
1612.80798659112,0.288172116424972,299877,154444
1615.777183611,0.287837570447565,290830,149900
1618.74205136676,0.287963409198677,282313,145468
1621.7025898584,0.288005843358269,273688,141010
1624.65879908592,0.28677867096539,265114,136979
1627.61067904931,0.288358679433874,256632,132115
1631.53978458964,0.287295551833972,245533,126711
1634.48156293674,0.287054524095203,237470,122618
1637.41901201972,0.28596366735132,229375,118736
1640.35213183857,0.287487061423507,221657,114339
1643.28092239331,0.286963292570341,213730,110383
1646.20538368392,0.287059132171276,205860,106295
1649.1255157104,0.288357835221917,198287,102079
1653.01229066819,0.286876077078607,188333,97286
1655.92232107839,0.289018736680373,181329,93207
1658.82802222446,0.288540523642533,173467,89264
1661.72939410641,0.287783302429453,165442,85283
1664.62643672424,0.289779487472345,156990,80555
1667.51915007795,0.290463743439964,147880,75761
1671.36936680536,0.289373970439568,134694,69179
1674.25197854278,0.288766691484869,123779,63662
1677.13026101607,0.285742180151166,111727,57865
1680.00421422524,0.286452168912285,99161,51273
1682.87383817029,0.283362310683184,86464,45027
1685.73913285121,0.28309208168173,74487,38814
1688.60009826801,0.281557761477147,63502,33207
1692.40798441288,0.28993557004179,50860,26088
1695.25884821339,0.281975356085978,42674,22294
1698.10538274978,0.28595239959515,36346,18815
1700.94758802205,0.286324663241175,30691,15874
