***Scan Config Information***,,,,,,,***Reference Scan Information***,,,,,,,,
Scan Config Name:,FolHerbario,,,,,,Scan Config Name:,Local New Reference,,,,,,,
Scan Config Type:,Slew,Num Section:,1,,,,Scan Config Type:,Slew,Num Section:,1,,,,,
Section Config Type:,Column,,,,,,Section Config Type:,Column,,,,,,,
Start Wavelength (nm):,900,,,,,,Start Wavelength (nm):,900,,,,,,,
End Wavelength (nm):,1700,,,,,,End Wavelength (nm):,1700,,,,,,,
Pattern Width (nm):,7.03,,,,,,Pattern Width (nm):,7.03,,,,,,,
Exposure (ms):,0.635,,,,,,Exposure (ms):,0.635,,,,,,,
Digital Resolution:,228,,,,,,Digital Resolution:,228,,,,,,,
Num Repeats:,20,,,,,,Num Repeats:,20,,,,,,,
PGA Gain:,64,(FixedPGA),,,,,PGA Gain:,64,(AutoPGA),,,,,,
System Temp (C):,39.83,,,,,,System Temp (C):,39.86,,,,,,,
Humidity (%):,44,,,,,,Humidity (%):,44.1,,,,,,,
Lamp ADC:,3068,3082,845,843,,,Lamp ADC:,3068,3082,845,842,,,,
Data Date-Time:,2025/04/03T11:12:12,,,,,,Data Date-Time:,2025/04/03T11:07:23,,,,,,,
Total Measurement Time in sec:,6.4783189,,,,,,,,,,,,,,
,,,,,,,,,,,,,,,
***General Information***,,,,,,,***Calibration Coefficients***,,,,,,,,
Model Name:,NIR-S-G1,,,,,,Shift Vector Coefficients:,-4.78706677830951,0.0420606707536571,-9.21439965724389E-05,,,,,
Serial Number:,C23R001,(95UB125GC0VC23R001),,,,,Pixel to Wavelength Coefficients:,1777.69850932213,-0.910890781979712,-0.000240535926235214,,,,,
GUI Version:,3.13.1,Revision:,930,,,,Versions (Cal/Ref/Cfg):,1,3,1,,,,,
TIVA Version:,2.4.10,,,,,,***Lamp Usage ***,,,,,,,,
DLPC Version:,2.3.1,,,,,,Total Time(hh:mm:ss):,7min 38sec ,,,,,,,
UUID:,DE:67:0C:88:67:3E:75:21,,,,,,***Device/Error/Activation Status***,,,,,,,,
Main Board Version:,F,,,,,,Device Status:,0x00000001,Activation Status:,Activated,,,,,
Detector Board Version:,C,,,,,,Error status:,0x00000000,Error Code:,0x00000000000000000000000000000000,,,,,
,,,,,,,,,Error Details:,Not found,,,,,
***Scan Data***,,,,,,,,,,,,,,,
Wavelength (nm),Reflectance (unitless)
900.868887283122,0.463698988075443
904.747472781646,0.467870812975147
909.912185107076,0.476092934734397
913.780668096698,0.479021758516141
917.644821439648,0.484098795672586
921.504645135925,0.48849104859335
925.36013918553,0.491579069471986
929.211303588463,0.494938695099073
933.058138344724,0.500517921883093
938.180516347137,0.505569149612305
942.017248594496,0.509302919019671
945.849651195182,0.512722456117174
949.677724149196,0.516856411759475
953.501467456539,0.521420150994507
957.320881117208,0.526182558940715
961.135965131206,0.529289949302552
966.216008810601,0.533205773222661
970.020990315697,0.538453321383163
973.821642174121,0.541150761094008
977.617964385872,0.543895131449882
981.409956950951,0.548766932308446
985.197619869358,0.552284166231194
988.980953141092,0.555460229067311
994.01866249747,0.559751103431273
997.791893260303,0.562552215437944
1001.56079437646,0.565580209583945
1005.32536584595,0.569115323027975
1009.08560766877,0.572374337445763
1012.84151984491,0.574763931538088
1016.59310237438,0.578115614923054
1021.58847740774,0.581505207759173
1025.32995742831,0.583973241913944
1029.06710780221,0.586950725310244
1032.79992852944,0.590384599674871
1036.52841960999,0.592913142382119
1040.25258104387,0.595044833339832
1043.97241283108,0.597470513294703
1047.68791497161,0.599753494725814
1052.63518281973,0.603484923381117
1056.34058245136,0.606130768581098
1060.04165243632,0.607814375250033
1063.73839277461,0.609957837908369
1067.43080346623,0.61223220708912
1071.11888451118,0.6142396736359
1074.80263590945,0.615932710449592
1079.70756943455,0.618018684749934
1083.38121832392,0.620871312052747
1087.05053756662,0.622055835026818
1090.71552716264,0.623530586475675
1094.376187112,0.625094266132975
1098.03251741468,0.62652575478197
1101.68451807069,0.627813435501953
1106.54711727277,0.629593914942112
1110.18901541988,0.630869337618543
1113.82658392031,0.631859242553226
1117.45982277408,0.633266738281446
1121.08873198117,0.633877651376587
1124.71331154159,0.634603909587799
1128.33356145534,0.635519930418969
1133.1538263344,0.636224053028816
1136.76397373924,0.637052691670055
1140.36979149742,0.636698970980563
1143.97127960892,0.637611040609137
1147.56843807374,0.637811875455635
1151.1612668919,0.637759797347068
1154.74976606338,0.637376680079412
1159.52769661943,0.638086072031779
1163.10609328201,0.637146401472854
1166.68016029792,0.637666917162842
1170.24989766716,0.637616931083612
1173.81530538972,0.63710856832095
1177.37638346562,0.637936000408337
1180.93313189484,0.637281647538967
1185.66872812787,0.636706620933226
1189.21537404818,0.637365959207051
1192.75769032183,0.637547183672613
1196.29567694881,0.637522396586198
1199.82933392911,0.638622321771056
1203.35866126274,0.638585250360051
1206.8836589497,0.638981286894133
1211.57692085971,0.640541863235723
1215.09181603776,0.641291739537154
1218.60238156915,0.642047006720296
1222.10861745386,0.644501668808609
1225.6105236919,0.64572751530372
1229.10810028326,0.646913852318704
1232.60134722796,0.648533270248183
1236.09026452598,0.649128802376656
1240.73541925074,0.650601996772862
1244.21423403986,0.651839301653092
1247.68871918231,0.653001911604854
1251.15887467809,0.65382547269526
1254.62470052719,0.654130488504664
1258.08619672962,0.654952894100105
1261.54336328538,0.655661427369221
1266.14618368713,0.656356755487232
1269.59324773399,0.65664458485849
1273.03598213417,0.657377965300239
1276.47438688769,0.658093256790865
1279.90846199453,0.658567124666849
1283.3382074547,0.65936145472601
1286.76362326819,0.659884002115448
1291.32410934692,0.660243788908775
1294.73942265151,0.660421600697515
1298.15040630944,0.661156353795055
1301.55706032069,0.6617626899577
1304.95938468526,0.661385928752065
1308.35737940317,0.66140377505115
1311.7510444744,0.662263808139535
1316.26919623011,0.661870486223056
1319.65275879245,0.661501297673835
1323.03199170811,0.661544877025224
1326.40689497709,0.661308420216224
1329.77746859941,0.66053859133759
1333.14371257505,0.659771850097725
1336.50562690402,0.659329294782063
1340.98144433671,0.657869538619267
1344.33325615678,0.656787035286475
1347.68073833018,0.655433336009674
1351.0238908569,0.654070633877485
1354.36271373695,0.653174654830046
1357.69720697033,0.651610028377776
1361.02737055704,0.65025542348158
1365.46085366672,0.648442450763681
1368.78091474452,0.646402625497874
1372.09664617566,0.645940424699434
1375.40804796012,0.644456628601679
1378.71512009791,0.64349567631479
1382.01786258902,0.641628190079249
1385.31627543347,0.640097537198629
1388.61035863124,0.637953390618558
1392.99573455567,0.634060066388332
1396.27971524454,0.630463133255308
1399.55936628673,0.626239168908827
1402.83468768226,0.621722754307706
1406.10567943111,0.615077734519404
1409.3723415333,0.60816439187977
1412.6346739888,0.60100540916221
1416.97771559022,0.591185391330444
1420.22994553682,0.583593231839664
1423.47784583676,0.577444825478509
1426.72141649002,0.570273351058789
1429.96065749661,0.564824427736566
1433.19556885653,0.561050769409061
1436.42615056978,0.557722090832341
1440.72685784817,0.554283365052641
1443.94733705251,0.552802242689437
1447.16348661018,0.551820555550105
1450.37530652118,0.550613156526991
1453.58279678551,0.550330857414668
1456.78595740317,0.549919121030508
1459.98478837415,0.549563804552737
1464.24316132953,0.549194413385569
1467.43188979161,0.549666763836731
1470.61628860702,0.549724308114572
1473.79635777575,0.550570889537634
1476.97209729782,0.550944265916414
1480.14350717321,0.551773237572632
1483.31058740193,0.552763340897445
1487.52662603429,0.5536106227063
1490.68360375411,0.554586260502207
1493.83625182725,0.555663575407314
1496.98457025372,0.556232313340022
1500.12855903353,0.557874972387895
1503.26821816666,0.55923062520835
1506.40354765311,0.560670796674531
1510.57725196245,0.562414111151003
1513.70247894001,0.564392130422976
1516.82337627089,0.565921003502238
1519.9399439551,0.567071999949221
1523.05218199264,0.568699124509258
1526.16009038351,0.569712711073207
1529.2636691277,0.570335408913142
1532.36291822522,0.571135847776171
1536.48851534932,0.572557328307718
1539.57766193794,0.573376589345699
1542.66247887988,0.573219812389665
1545.74296617516,0.574145230017595
1548.81912382376,0.574436822352325
1551.89095182569,0.574683023100623
1554.95845018095,0.575364839754717
1559.04171298203,0.575935584594753
1562.09910882838,0.575572624165456
1565.15217502807,0.576466697532906
1568.20091158108,0.576525745912761
1571.24531848742,0.576914674063584
1574.28539574709,0.577190553455177
1577.32114336008,0.577388580666124
1581.36207183814,0.578006035547264
1584.38771694224,0.578722821795209
1587.40903239966,0.579196060162385
1590.42601821041,0.58033905136591
1593.43867437448,0.580768147117883
1596.44700089189,0.582543898076151
1599.45099776262,0.5832982080272
1603.44959191766,0.585189135688581
1606.44348627949,0.586287620488735
1609.43305099465,0.587140584514316
1612.41828606314,0.587895044392217
1615.39919148495,0.58907403501371
1618.37576726009,0.588963427829474
1621.34801338856,0.5900823557803
1625.30427322059,0.591575207218791
1628.26641684016,0.591850286571005
1631.22423081305,0.592680143957371
1634.17771513927,0.591578809508218
1637.12686981883,0.591431660885776
1640.0716948517,0.59143152235802
1643.01219023791,0.592280304090613
1646.92611574692,0.593064633907422
1649.85650862422,0.591497730154938
1652.78257185485,0.591199410661259
1655.70430543881,0.589303670186023
1658.6217093761,0.587837426116629
1661.53478366672,0.585604392823705
1664.44352831066,0.584863712902547
1668.31511949665,0.582419066423276
1671.21376163169,0.581295627600283
1674.10807412006,0.580912213302154
1676.99805696176,0.579279015240328
1679.88371015678,0.576237048752911
1682.76503370514,0.576592794917955
1685.64202760682,0.575718934818663
1688.51469186182,0.572743864975243
1692.33817586257,0.571379566001616
1695.20073760867,0.569745541455051
1698.05896970811,0.570943725061534
1700.91287216087,0.57279782554272
