***Scan Config Information***,,,,,,,***Reference Scan Information***,,,,,,,,
Scan Config Name:,FolHerbario,,,,,,Scan Config Name:,Local New Reference,,,,,,,
Scan Config Type:,Slew,Num Section:,1,,,,Scan Config Type:,Slew,Num Section:,1,,,,,
Section Config Type:,Column,,,,,,Section Config Type:,Column,,,,,,,
Start Wavelength (nm):,900,,,,,,Start Wavelength (nm):,900,,,,,,,
End Wavelength (nm):,1700,,,,,,End Wavelength (nm):,1700,,,,,,,
Pattern Width (nm):,7.03,,,,,,Pattern Width (nm):,7.03,,,,,,,
Exposure (ms):,0.635,,,,,,Exposure (ms):,0.635,,,,,,,
Digital Resolution:,228,,,,,,Digital Resolution:,228,,,,,,,
Num Repeats:,20,,,,,,Num Repeats:,20,,,,,,,
PGA Gain:,64,(FixedPGA),,,,,PGA Gain:,64,(AutoPGA),,,,,,
System Temp (C):,39,,,,,,System Temp (C):,38.57,,,,,,,
Humidity (%):,44.07,,,,,,Humidity (%):,43.42,,,,,,,
Lamp ADC:,3083,3085,851,854,,,Lamp ADC:,3083,3085,851,853,,,,
Data Date-Time:,2025/04/03T11:01:13,,,,,,Data Date-Time:,2025/04/03T10:57:31,,,,,,,
Total Measurement Time in sec:,6.4642985,,,,,,,,,,,,,,
,,,,,,,,,,,,,,,
***General Information***,,,,,,,***Calibration Coefficients***,,,,,,,,
Model Name:,NIR-S-G1,,,,,,Shift Vector Coefficients:,-2.27453457587495,0.0384893477179632,-0.000120883834660424,,,,,
Serial Number:,C23R004,(95UB125GC0VC23R004),,,,,Pixel to Wavelength Coefficients:,1773.06832862561,-0.918144602406657,-0.000240533803363975,,,,,
GUI Version:,3.13.1,Revision:,930,,,,Versions (Cal/Ref/Cfg):,1,3,1,,,,,
TIVA Version:,2.4.10,,,,,,***Lamp Usage ***,,,,,,,,
DLPC Version:,2.3.1,,,,,,Total Time(hh:mm:ss):,8min 43sec ,,,,,,,
UUID:,DE:67:0C:88:67:66:73:21,,,,,,***Device/Error/Activation Status***,,,,,,,,
Main Board Version:,F,,,,,,Device Status:,0x00000001,Activation Status:,Activated,,,,,
Detector Board Version:,C,,,,,,Error status:,0x00000000,Error Code:,0x00000000000000000000000000000000,,,,,
,,,,,,,,,Error Details:,Not found,,,,,
***Scan Data***,,,,,,,,,,,,,,,
Wavelength (nm),Reflectance (unitless)
900.860912737931,0.596237595184937
904.749703961815,0.601747559021556
909.9280239805,0.606982854082379
913.806712784643,0.606537287045966
917.681071980326,0.611161504902596
921.551101567548,0.611723216191022
925.41680154631,0.613574757104133
929.278171916611,0.616608574974924
933.135212678451,0.616640148887292
936.987923831831,0.620033298663101
942.118137089843,0.621940056309899
945.960745823482,0.623293030686978
949.79902494866,0.625410689459542
953.632974465377,0.627594722275243
957.462594373634,0.627560665429298
961.287884673431,0.630350022398336
965.108845364766,0.6312842742151
970.196724673387,0.632282624546215
974.007582944981,0.633154652292659
977.814111608115,0.634595282571453
981.616310662789,0.635558787352238
985.414180109002,0.636874307351311
989.207719946754,0.637552944159334
992.996930176046,0.638505211611207
996.781810796877,0.639631154722271
1001.82158334482,0.640944729455038
1005.59636154591,0.641159687733859
1009.36681013854,0.642016969574413
1013.13292912271,0.642788224581687
1016.89471849842,0.642789973532617
1020.65217826567,0.643926551336332
1024.40530842446,0.643740168180733
1028.15410897478,0.644225442279045
1033.14577476206,0.645016751447833
1036.88447289264,0.646117152278325
1040.61884141477,0.646219744467969
1044.34888032843,0.646608829262512
1048.07458963364,0.64725146438373
1051.79596933038,0.647271047227926
1055.51301941866,0.64745007889327
1059.22573989848,0.648515127544751
1064.16929892509,0.648572125844853
1067.87191698517,0.649417096305109
1071.57020543679,0.64982139213136
1075.26416427995,0.649811806350688
1078.95379351464,0.650193885832807
1082.63909314088,0.650615312123271
1086.32006315866,0.650471997775491
1091.22128823587,0.650849584083006
1094.89215583391,0.651001255448788
1098.55869382348,0.650817073945788
1102.2209022046,0.651757238940289
1105.87878097725,0.651269403174976
1109.53233014145,0.651581555803897
1113.18154969718,0.652019595406146
1116.82643964446,0.652251069157347
1121.67955796099,0.651636540076231
1125.31434548853,0.651874874259423
1128.9448034076,0.651942179848822
1132.57093171821,0.651033798394502
1136.19273042036,0.65096349126486
1139.81019951405,0.65034025755328
1143.42333899928,0.649986895498378
1147.03214887605,0.649417348937666
1151.83716043191,0.648714117379823
1155.43586788894,0.648521745560307
1159.03024573751,0.647312620260723
1162.62029397761,0.646636850498408
1166.20601260926,0.645983993250207
1169.78740163244,0.646043615720435
1173.36446104717,0.645707021318208
1176.93719085343,0.644769152748213
1181.69409564862,0.643910731021942
1185.25672303515,0.64323424758235
1188.81502081321,0.643403400044844
1192.36898898281,0.642800058064691
1195.91862754395,0.643297212889793
1199.46393649663,0.642839088565883
1203.00491584085,0.642925004087097
1206.54156557661,0.642812274159071
1211.25036361113,0.643325086115079
1214.77691092715,0.64369101619242
1218.29912863471,0.644254009462361
1221.8170167338,0.644793863241607
1225.33057522444,0.645720490711894
1228.83980410662,0.646508823056716
1232.34470338033,0.647135983543617
1237.01116746546,0.647718411994698
1240.50596431943,0.648015088420797
1243.99643156495,0.648790042747853
1247.482569202,0.649218412327637
1250.96437723059,0.649190179317437
1254.44185565073,0.649572785375794
1257.9150044624,0.649759555538085
1261.38382366561,0.649712671994855
1266.00218099006,0.649689110284575
1269.46089777353,0.649957555825527
1272.91528494854,0.650050478760479
1276.36534251509,0.649679457516552
1279.81107047318,0.650331887535834
1283.2524688228,0.650136744879472
1286.68953756397,0.650443542841425
1290.12227669668,0.650667510034325
1294.69252726046,0.650793843479485
1298.11516397342,0.650613498787516
1301.53347107793,0.65080897373321
1304.94744857397,0.650691803495365
1308.35709646156,0.650353412567085
1311.76241474068,0.649643049327354
1315.16340341134,0.649989076335522
1318.56006247354,0.64939944593583
1323.08220627665,0.649129302739777
1326.46876291911,0.648643209378152
1329.85098995311,0.647791397019957
1333.22888737865,0.647548558430887
1336.60245519573,0.646783469624637
1339.97169340435,0.645584403809815
1343.33660200451,0.644820882092511
1347.81641185822,0.6435682126221
1351.17121803864,0.642287381143618
1354.52169461059,0.641697495911927
1357.86784157409,0.64027859668023
1361.20965892912,0.639000664568286
1364.5471466757,0.638010696676311
1367.88030481381,0.636763113294706
1371.20913334347,0.635956213148314
1375.64083643651,0.634486868219268
1378.95956254642,0.633559225441976
1382.27395904787,0.631946124888675
1385.58402594086,0.630193283407853
1388.88976322539,0.628051608044709
1392.19117090146,0.625383388150134
1395.48824896907,0.622501074875713
1398.78099742822,0.61928083164787
1403.16459376059,0.613478961354173
1406.4472398,0.608582596984528
1409.72555623094,0.602925550847793
1412.99954305343,0.597812020404575
1416.26920026746,0.59235423090281
1419.53452787302,0.586993667438196
1422.79552587013,0.582384279324804
1426.05219425877,0.578127561895393
1430.38768383047,0.573177617624405
1433.63424979937,0.570511646926604
1436.87648615981,0.568138149549617
1440.11439291179,0.566605529151884
1443.34797005532,0.56549692475329
1446.57721759038,0.564727166257474
1449.80213551698,0.564116256828212
1453.02272383511,0.564009074158194
1457.31010664614,0.563370353884723
1460.52059254454,0.562684165685354
1463.72674883448,0.562725820444062
1466.92857551595,0.563110634444229
1470.12607258897,0.563075159697866
1473.31924005352,0.56354984285154
1476.50807790962,0.563787652409629
1480.75312677125,0.564872663755459
1483.93186220761,0.564940532501543
1487.1062680355,0.565616465673178
1490.27634425493,0.566365018275395
1493.44209086591,0.567010043300716
1496.60350786842,0.567861696336651
1499.76059526247,0.568822343962576
1502.91335304806,0.569054263202326
1507.11029514902,0.570220222000854
1510.25295051487,0.572493775095897
1513.39127627226,0.57377850678972
1516.52527242119,0.575028649119621
1519.65493896165,0.576420229269156
1522.78027589366,0.576810759931856
1525.90128321721,0.578112363227839
1529.01796093229,0.579105626901195
1533.16679627258,0.580365895084195
1536.27337156793,0.581164406002228
1539.37561725481,0.581694389868309
1542.47353333323,0.582622810189819
1545.5671198032,0.583466035839064
1548.6563766647,0.58427081149542
1551.74130391774,0.584189806678383
1554.82190156232,0.58468142421276
1558.92263014194,0.585633269630609
1561.99312536678,0.58625701106531
1565.05929098316,0.586548612293547
1568.12112699108,0.587203745809087
1571.17863339054,0.587918622725346
1574.23181018153,0.588207862492444
1577.28065736407,0.588695962843873
1580.32517493815,0.588936745734499
1584.37779675709,0.58945109216653
1587.41221191143,0.591087636419308
1590.4422974573,0.592111969526262
1593.46805339471,0.593064448950262
1596.48947972367,0.59346410731324
1599.50657644416,0.595222529544883
1602.5193435562,0.595772839118884
1606.52963142574,0.597332159544246
1609.53229611804,0.598318124888173
1612.53063120187,0.599849947721148
1615.52463667724,0.601066369785826
1618.51431254415,0.601005754778597
1621.4996588026,0.602402518406624
1624.48067545259,0.602573226347845
1627.45736249411,0.604393256918251
1631.41954360299,0.605147121846539
1634.38612822478,0.604725078887563
1637.3483832381,0.605313566524126
1640.30630864297,0.605859817697651
1643.25990443938,0.605353758629461
1646.20917062732,0.605656044171434
1649.15410720681,0.60543739738058
1652.09471417783,0.604541524028382
1656.00878852603,0.604929778831291
1658.93929307732,0.604028518507377
1661.86546802014,0.60275414712378
1664.7873133545,0.601150738288967
1667.7048290804,0.602252630538952
1670.61801519784,0.599822542369322
1673.52687170682,0.600551571356719
1676.43139860734,0.597698738316315
1680.29736619487,0.595517283063948
1683.19179067565,0.596022796168304
1686.08188554796,0.593951583005857
1688.96765081182,0.592934642211315
1691.84908646722,0.586923715385196
1694.72619251415,0.590097486649211
1697.59896895263,0.589541040721641
1701.42260259077,0.587351729043325
