***Scan Config Information***,,,,,,,***Reference Scan Information***,,,,,,,,
Scan Config Name:,FolHerbario,,,,,,Scan Config Name:,Local New Reference,,,,,,,
Scan Config Type:,Slew,Num Section:,1,,,,Scan Config Type:,Slew,Num Section:,1,,,,,
Section Config Type:,Column,,,,,,Section Config Type:,Column,,,,,,,
Start Wavelength (nm):,900,,,,,,Start Wavelength (nm):,900,,,,,,,
End Wavelength (nm):,1700,,,,,,End Wavelength (nm):,1700,,,,,,,
Pattern Width (nm):,7.03,,,,,,Pattern Width (nm):,7.03,,,,,,,
Exposure (ms):,0.635,,,,,,Exposure (ms):,0.635,,,,,,,
Digital Resolution:,228,,,,,,Digital Resolution:,228,,,,,,,
Num Repeats:,20,,,,,,Num Repeats:,20,,,,,,,
PGA Gain:,64,(FixedPGA),,,,,PGA Gain:,64,(AutoPGA),,,,,,
System Temp (C):,42.21,,,,,,System Temp (C):,42.42,,,,,,,
Humidity (%):,43.89,,,,,,Humidity (%):,41.96,,,,,,,
Lamp ADC:,3066,3081,829,851,,,Lamp ADC:,3066,3081,829,851,,,,
Data Date-Time:,2025/04/03T11:22:53,,,,,,Data Date-Time:,2025/04/03T11:18:54,,,,,,,
Total Measurement Time in sec:,6.4855896,,,,,,,,,,,,,,
,,,,,,,,,,,,,,,
***General Information***,,,,,,,***Calibration Coefficients***,,,,,,,,
Model Name:,NIR-S-G1,,,,,,Shift Vector Coefficients:,0.392694521123758,0.0064508848494657,-3.36963000867986E-05,,,,,
Serial Number:,C23R003,(95UB125GC0VC23R003),,,,,Pixel to Wavelength Coefficients:,1737.96619343203,-0.927679554192883,-0.000240514673521399,,,,,
GUI Version:,3.13.1,Revision:,930,,,,Versions (Cal/Ref/Cfg):,1,3,1,,,,,
TIVA Version:,2.4.10,,,,,,***Lamp Usage ***,,,,,,,,
DLPC Version:,2.3.1,,,,,,Total Time(hh:mm:ss):,13min 46sec ,,,,,,,
UUID:,DE:67:0C:88:67:47:5F:21,,,,,,***Device/Error/Activation Status***,,,,,,,,
Main Board Version:,F,,,,,,Device Status:,0x00000001,Activation Status:,Activated,,,,,
Detector Board Version:,C,,,,,,Error status:,0x00000000,Error Code:,0x00000000000000000000000000000000,,,,,
,,,,,,,,,Error Details:,Not found,,,,,
***Scan Data***,,,,,,,,,,,,,,,
Wavelength (nm),Reflectance (unitless)
901.114121469303,0.352013509258994
904.983805426851,0.355316689170704
908.849160120276,0.357439397816093
913.996231967317,0.363021674617783
917.851485044454,0.364951344447992
921.702408857468,0.368273232724384
925.549003406358,0.372010348185322
929.391268691125,0.373338963523665
933.229204711769,0.376487238760202
937.062811468289,0.379056307420875
942.16755273279,0.382880266418835
945.991057873023,0.385745312386882
949.810233749132,0.388699296308177
953.625080361117,0.391364164836584
957.435597708979,0.392722556273399
961.241785792718,0.39641626181963
966.309968826844,0.398597101192519
970.106055294295,0.401380502272388
973.897812497622,0.403287944118884
977.685240436826,0.406094196719667
981.468339111907,0.40842401615766
985.247108522864,0.40992381980685
989.021548669698,0.411177083505615
994.047401121285,0.413966741861813
997.811739651831,0.416461154084837
1001.57174891825,0.418251089863355
1005.32742892055,0.419483930990136
1009.07877965873,0.421110795293048
1012.82580113278,0.42277774505851
1016.56849334271,0.424865744875694
1021.55201521176,0.427066239630606
1025.2846058054,0.428550725950347
1029.01286713492,0.430031844459223
1032.73679920031,0.431164199743452
1036.45640200158,0.433042753114661
1040.17167553873,0.434045625246243
1045.1186391774,0.436269927375534
1048.82381109826,0.437190893345259
1052.524653755,0.438200354630108
1056.22116714761,0.439756095899896
1059.9133512761,0.440787104460304
1063.60120614046,0.441924551012005
1067.28473174071,0.442989742848888
1072.18936479684,0.444574347536738
1075.86278878079,0.445696987622453
1079.53188350063,0.446729446675979
1083.19664895633,0.448064974475263
1086.85708514792,0.448342120938031
1090.51319207538,0.450062509904738
1094.16496973872,0.449934081940207
1099.02727221231,0.450736168865896
1102.66894825936,0.451905200423957
1106.30629504229,0.453069349778211
1109.93931256109,0.452876954218528
1113.56800081577,0.454244999111096
1117.19235980633,0.454570260953725
1120.81238953276,0.454827101406557
1125.63236142381,0.455083882160724
1129.24228953396,0.45558488352606
1132.84788837998,0.455807920449885
1136.44915796188,0.45615502117425
1140.04609827965,0.457186805322783
1143.6387093333,0.457118270954397
1148.42212299398,0.457131863792388
1152.00463243134,0.457531544236259
1155.58281260458,0.456791893700411
1159.1566635137,0.457180898874185
1162.72618515869,0.457277895746284
1166.29137753957,0.457445116439658
1169.85224065631,0.456663923087697
1174.59332373445,0.457141830383065
1178.14408523491,0.456820670760651
1181.69051747124,0.457298396413882
1185.23262044346,0.457082254069259
1188.77039415154,0.45704624152359
1192.30383859551,0.457665394854857
1195.83295377535,0.457556950357723
1200.53170627095,0.458751624053569
1204.0507198345,0.459241069911294
1207.56540413393,0.459681408924508
1211.07575916924,0.459523203501268
1214.58178494043,0.460353119548737
1218.08348144749,0.461482451604381
1222.74567571271,0.462581485896916
1226.23727060348,0.463090730129274
1229.72453623013,0.464024786631106
1233.20747259266,0.464214733071199
1236.68607969106,0.465524567629976
1240.16035752534,0.466223082542654
1243.63030609549,0.466604398005252
1248.25016977818,0.467296454137367
1251.71001673204,0.468131141586718
1255.16553442179,0.468279900449713
1258.61672284741,0.468243234825508
1262.06358200891,0.468900288114983
1265.50611190628,0.469244340657627
1268.94431253953,0.469442301852006
1273.52184563968,0.470320764556261
1276.94994465664,0.47035901603014
1280.37371440948,0.470367308868782
1283.79315489819,0.470635873372168
1287.20826612279,0.471050552411051
1290.61904808326,0.471402046420053
1295.16002295302,0.471776274424686
1298.56070329721,0.471548262888157
1301.95705437726,0.471955991029176
1305.3490761932,0.472073317688844
1308.73676874501,0.472201508834875
1312.1201320327,0.472304470738695
1315.49916605626,0.472488464248642
1319.99781034349,0.472136375218542
1323.36674275077,0.472283981522234
1326.73134589392,0.472183386497618
1330.09161977295,0.471712995565248
1333.44756438786,0.471649832840549
1336.79917973864,0.471101618875507
1340.1464658253,0.470379307505716
1344.60277952999,0.469907480962991
1347.93996400036,0.469090566018492
1351.27281920661,0.468312307221519
1354.60134514873,0.467775371287129
1357.92554182674,0.466725153852833
1361.24540924061,0.466371105295366
1364.56094739037,0.465407974995165
1368.97493051252,0.46480132689118
1372.28036704598,0.464066434320018
1375.58147431533,0.463292037920696
1378.87825232055,0.462673456532544
1382.17070106165,0.461752623822609
1385.45882053862,0.460434957636532
1389.83624543039,0.458959898897933
1393.11426329108,0.457396098761093
1396.38795188764,0.454855555555556
1399.65731122008,0.452328533237481
1402.92234128839,0.449472693192227
1406.18304209259,0.446085847391947
1409.43941363266,0.442610295703176
1413.77450794189,0.436640036468657
1417.02077786567,0.432058494961362
1420.26271852533,0.428578859382834
1423.50032992086,0.42467844253303
1426.73361205227,0.422143079023601
1429.96256491956,0.41909035190175
1433.18718852272,0.416875078651718
1437.47995224942,0.414967829816833
1440.69447423629,0.413813048507885
1443.90466695905,0.412908714500164
1447.11053041767,0.412561605018009
1450.31206461218,0.412422919950482
1453.50926954256,0.412205490730572
1457.76547503888,0.412515262425561
1460.95257835298,0.412094743782052
1464.13535240295,0.412369743614825
1467.31379718879,0.412279486159353
1470.48791271052,0.412882938110876
1473.65769896812,0.41382422680957
1476.8231559616,0.414148749181541
1481.03703087538,0.414300344331711
1484.19238625257,0.41494656089646
1487.34341236563,0.416237639817018
1490.49010921458,0.416354860170711
1493.63247679939,0.417111824350588
1496.77051512009,0.418068004621891
1499.90422417666,0.418521665250637
1504.0757685079,0.419690096711481
1507.19937594819,0.420385316410309
1510.31865412435,0.420953062599442
1513.43360303639,0.421768094301084
1516.5442226843,0.422644378996158
1519.65051306809,0.423124795969492
1522.75247418776,0.424043599815975
1526.88168793646,0.42451090825531
1529.97354743984,0.424919742077102
1533.0610776791,0.425396813601641
1536.14427865423,0.425669504702384
1539.22315036524,0.426554761069278
1542.29769281213,0.426240822262861
1546.39034833045,0.42730838131032
1549.45478916105,0.427098880881161
1552.51490072752,0.427936837662365
1555.57068302988,0.427513923218429
1558.6221360681,0.428109649885844
1561.66925984221,0.428431527197203
1564.71205435219,0.427959853068666
1568.76237928798,0.428755353952901
1571.79507218167,0.428868564130976
1574.82343581124,0.427830324563088
1577.84747017669,0.428796838364325
1580.86717527801,0.429722772476345
1583.88255111521,0.429943782047322
1586.89359768829,0.43033272074818
1590.90159204153,0.430774464842208
1593.90253699832,0.431019076978064
1596.89915269099,0.431713155167181
1599.89143911953,0.432296917203293
1602.87939628395,0.432609837213373
1605.86302418424,0.433957173646752
1609.83446030711,0.433734512932326
1612.80798659112,0.434237435324612
1615.777183611,0.433511590098058
1618.74205136676,0.4346468610852
1621.7025898584,0.435091311023751
1624.65879908592,0.435450282409696
1627.61067904931,0.436159298818847
1631.53978458964,0.435914115783689
1634.48156293674,0.434916803100672
1637.41901201972,0.436003235196166
1640.35213183857,0.43570015486389
1643.28092239331,0.436832385177211
1646.20538368392,0.434359836656257
1649.1255157104,0.433656489654175
1653.01229066819,0.434294022244034
1655.92232107839,0.434922954448794
1658.82802222446,0.433330682992765
1661.72939410641,0.432407055243891
1664.62643672424,0.432792638082616
1667.51915007795,0.430111117658999
1671.36936680536,0.430647488119484
1674.25197854278,0.429172733891518
1677.13026101607,0.429276858141529
1680.00421422524,0.427151685035357
1682.87383817029,0.425210306279181
1685.73913285121,0.427887284841755
1688.60009826801,0.427755736650225
1692.40798441288,0.420610838088327
1695.25884821339,0.42199738265914
1698.10538274978,0.424159183767688
1700.94758802205,0.428811643741213
