***Scan Config Information***,,,,,,,***Reference Scan Information***,,,,,,,,
Scan Config Name:,FolHerbario,,,,,,Scan Config Name:,Local New Reference,,,,,,,
Scan Config Type:,Slew,Num Section:,1,,,,Scan Config Type:,Slew,Num Section:,1,,,,,
Section Config Type:,Column,,,,,,Section Config Type:,Column,,,,,,,
Start Wavelength (nm):,900,,,,,,Start Wavelength (nm):,900,,,,,,,
End Wavelength (nm):,1700,,,,,,End Wavelength (nm):,1700,,,,,,,
Pattern Width (nm):,7.03,,,,,,Pattern Width (nm):,7.03,,,,,,,
Exposure (ms):,0.635,,,,,,Exposure (ms):,0.635,,,,,,,
Digital Resolution:,228,,,,,,Digital Resolution:,228,,,,,,,
Num Repeats:,20,,,,,,Num Repeats:,20,,,,,,,
PGA Gain:,64,(FixedPGA),,,,,PGA Gain:,64,(AutoPGA),,,,,,
System Temp (C):,38.49,,,,,,System Temp (C):,38.38,,,,,,,
Humidity (%):,47.16,,,,,,Humidity (%):,47.13,,,,,,,
Lamp ADC:,3069,3082,845,843,,,Lamp ADC:,3069,3082,845,842,,,,
Data Date-Time:,2025/04/03T10:31:49,,,,,,Data Date-Time:,2025/04/03T10:30:29,,,,,,,
Total Measurement Time in sec:,6.4843158,,,,,,,,,,,,,,
,,,,,,,,,,,,,,,
***General Information***,,,,,,,***Calibration Coefficients***,,,,,,,,
Model Name:,NIR-S-G1,,,,,,Shift Vector Coefficients:,-4.78706677830951,0.0420606707536571,-9.21439965724389E-05,,,,,
Serial Number:,C23R001,(95UB125GC0VC23R001),,,,,Pixel to Wavelength Coefficients:,1777.69850932213,-0.910890781979712,-0.000240535926235214,,,,,
GUI Version:,3.13.1,Revision:,930,,,,Versions (Cal/Ref/Cfg):,1,3,1,,,,,
TIVA Version:,2.4.10,,,,,,***Lamp Usage ***,,,,,,,,
DLPC Version:,2.3.1,,,,,,Total Time(hh:mm:ss):,4min 47sec ,,,,,,,
UUID:,DE:67:0C:88:67:3E:75:21,,,,,,***Device/Error/Activation Status***,,,,,,,,
Main Board Version:,F,,,,,,Device Status:,0x00000001,Activation Status:,Activated,,,,,
Detector Board Version:,C,,,,,,Error status:,0x00000000,Error Code:,0x00000000000000000000000000000000,,,,,
,,,,,,,,,Error Details:,Not found,,,,,
***Scan Data***,,,,,,,,,,,,,,,
Wavelength (nm),Reflectance (unitless)
900.868887283122,0.501295693362063
904.747472781646,0.505961396217111
909.912185107076,0.51204596295283
913.780668096698,0.515632183908046
917.644821439648,0.519044627719575
921.504645135925,0.522278665175106
925.36013918553,0.527079819119885
929.211303588463,0.529925585650277
933.058138344724,0.534258552433027
938.180516347137,0.536709570878865
942.017248594496,0.539930900867054
945.849651195182,0.543231649850316
949.677724149196,0.546294835384454
953.501467456539,0.548957183378732
957.320881117208,0.552296253795214
961.135965131206,0.55620475949425
966.216008810601,0.557533917020546
970.020990315697,0.560795044096935
973.821642174121,0.5630031247022
977.617964385872,0.566481876952836
981.409956950951,0.568687699830732
985.197619869358,0.571900981534159
988.980953141092,0.574720328428227
994.01866249747,0.577247080949769
997.791893260303,0.581079980103599
1001.56079437646,0.583297782921441
1005.32536584595,0.586560181209162
1009.08560766877,0.588989675882265
1012.84151984491,0.59165698044547
1016.59310237438,0.594058696915384
1021.58847740774,0.597429272387908
1025.32995742831,0.600970241848545
1029.06710780221,0.603698846016979
1032.79992852944,0.606089343546821
1036.52841960999,0.608999905986993
1040.25258104387,0.610984624149287
1043.97241283108,0.612917384527033
1047.68791497161,0.615917189398667
1052.63518281973,0.61953061375583
1056.34058245136,0.622238081820444
1060.04165243632,0.624660177865005
1063.73839277461,0.627992052408503
1067.43080346623,0.630785030871088
1071.11888451118,0.632819992791648
1074.80263590945,0.634282545518028
1079.70756943455,0.637177181915958
1083.38121832392,0.638740711625208
1087.05053756662,0.640708394991936
1090.71552716264,0.642116917350239
1094.376187112,0.643388239377406
1098.03251741468,0.646674587991574
1101.68451807069,0.647774739802172
1106.54711727277,0.650469625968464
1110.18901541988,0.652500141800297
1113.82658392031,0.653975598647325
1117.45982277408,0.65500219460428
1121.08873198117,0.656796114567578
1124.71331154159,0.658296704823846
1128.33356145534,0.658232144724872
1133.1538263344,0.659757926201794
1136.76397373924,0.660751353966693
1140.36979149742,0.662003956121603
1143.97127960892,0.661948498533577
1147.56843807374,0.662743403617928
1151.1612668919,0.663351206383105
1154.74976606338,0.663073988669684
1159.52769661943,0.663978043961053
1163.10609328201,0.664366455007223
1166.68016029792,0.664538400951854
1170.24989766716,0.664706143548035
1173.81530538972,0.665195805016953
1177.37638346562,0.665420428123874
1180.93313189484,0.665084044460251
1185.66872812787,0.665387301858821
1189.21537404818,0.665584146399547
1192.75769032183,0.666043977359506
1196.29567694881,0.666617702207375
1199.82933392911,0.666695151485113
1203.35866126274,0.667465449002423
1206.8836589497,0.668412750926511
1211.57692085971,0.668910940588686
1215.09181603776,0.66995141924058
1218.60238156915,0.67120005004419
1222.10861745386,0.672513358808886
1225.6105236919,0.673457295223047
1229.10810028326,0.674993764359402
1232.60134722796,0.676713311804808
1236.09026452598,0.677196552477073
1240.73541925074,0.678551667102977
1244.21423403986,0.679504007187623
1247.68871918231,0.680053110380979
1251.15887467809,0.680825203177171
1254.62470052719,0.681057875000696
1258.08619672962,0.681992547579886
1261.54336328538,0.683097875800386
1266.14618368713,0.683462650964857
1269.59324773399,0.684470319712839
1273.03598213417,0.684583815938112
1276.47438688769,0.6856295750822
1279.90846199453,0.685436719915346
1283.3382074547,0.686830833087922
1286.76362326819,0.687241266044326
1291.32410934692,0.687972712626745
1294.73942265151,0.688790664300384
1298.15040630944,0.689125143158058
1301.55706032069,0.689710438236508
1304.95938468526,0.689892419770831
1308.35737940317,0.69018103359455
1311.7510444744,0.69034963175988
1316.26919623011,0.690917808169672
1319.65275879245,0.690876929093589
1323.03199170811,0.690706552124225
1326.40689497709,0.690594065354639
1329.77746859941,0.690474444702208
1333.14371257505,0.689935838503636
1336.50562690402,0.689357616468457
1340.98144433671,0.68813635420036
1344.33325615678,0.686935585345787
1347.68073833018,0.685452331199178
1351.0238908569,0.684135209028887
1354.36271373695,0.683088621930995
1357.69720697033,0.682015471595368
1361.02737055704,0.680444566118185
1365.46085366672,0.678753567177485
1368.78091474452,0.677564874493826
1372.09664617566,0.676916953401833
1375.40804796012,0.675734188759946
1378.71512009791,0.674287220199957
1382.01786258902,0.673386488800296
1385.31627543347,0.671764770971299
1388.61035863124,0.669984965176027
1392.99573455567,0.666142371238049
1396.27971524454,0.662783991541331
1399.55936628673,0.658668404204698
1402.83468768226,0.6533733505511
1406.10567943111,0.647690547651316
1409.3723415333,0.640014818058752
1412.6346739888,0.633033190748329
1416.97771559022,0.623107611679492
1420.22994553682,0.615779255832155
1423.47784583676,0.607797671229641
1426.72141649002,0.600536207941885
1429.96065749661,0.594858293109333
1433.19556885653,0.590205905389999
1436.42615056978,0.585812210173983
1440.72685784817,0.582445721111379
1443.94733705251,0.580194231695652
1447.16348661018,0.578866016875182
1450.37530652118,0.577607393769214
1453.58279678551,0.576899086280724
1456.78595740317,0.576454916186013
1459.98478837415,0.576330869505648
1464.24316132953,0.576269212855147
1467.43188979161,0.576651550662389
1470.61628860702,0.577262841800932
1473.79635777575,0.577733351180735
1476.97209729782,0.578921942978802
1480.14350717321,0.579816615112682
1483.31058740193,0.580543483661296
1487.52662603429,0.58241895757483
1490.68360375411,0.583346533217076
1493.83625182725,0.584802334710344
1496.98457025372,0.586434851986437
1500.12855903353,0.587366727441771
1503.26821816666,0.588640563078943
1506.40354765311,0.590449723628395
1510.57725196245,0.592357012716677
1513.70247894001,0.593416365949878
1516.82337627089,0.59481867076571
1519.9399439551,0.595890324174675
1523.05218199264,0.597293289313463
1526.16009038351,0.597614622406559
1529.2636691277,0.598354624890938
1532.36291822522,0.599392263284575
1536.48851534932,0.600024367081742
1539.57766193794,0.599982122106016
1542.66247887988,0.60023583094573
1545.74296617516,0.600144664337306
1548.81912382376,0.600736404833837
1551.89095182569,0.600695114887044
1554.95845018095,0.601797520327175
1559.04171298203,0.600724574006136
1562.09910882838,0.600727422683476
1565.15217502807,0.601210795315241
1568.20091158108,0.601024967299483
1571.24531848742,0.601054567128827
1574.28539574709,0.601361196015394
1577.32114336008,0.601463568940262
1581.36207183814,0.602216558143375
1584.38771694224,0.602543452753935
1587.40903239966,0.603331069485835
1590.42601821041,0.603834787626559
1593.43867437448,0.604856423353913
1596.44700089189,0.604471717739604
1599.45099776262,0.605832470599183
1603.44959191766,0.607009654934371
1606.44348627949,0.608080867530862
1609.43305099465,0.608014147038904
1612.41828606314,0.608510397859045
1615.39919148495,0.610494588299767
1618.37576726009,0.609826207358184
1621.34801338856,0.610498071347675
1625.30427322059,0.611631957896066
1628.26641684016,0.611237815730231
1631.22423081305,0.611368220834368
1634.17771513927,0.610638868446983
1637.12686981883,0.610959678170219
1640.0716948517,0.610197912394661
1643.01219023791,0.611258966451415
1646.92611574692,0.608617811090192
1649.85650862422,0.610575650639612
1652.78257185485,0.607234563874212
1655.70430543881,0.606441412104425
1658.6217093761,0.604886038496554
1661.53478366672,0.604634069067483
1664.44352831066,0.602130540680753
1668.31511949665,0.600684211514276
1671.21376163169,0.599776863192344
1674.10807412006,0.595264471877832
1676.99805696176,0.596038463753095
1679.88371015678,0.59466153875542
1682.76503370514,0.594404894645052
1685.64202760682,0.58610294057736
1688.51469186182,0.589464243568563
1692.33817586257,0.590350169059235
1695.20073760867,0.585282771074448
1698.05896970811,0.577761093894764
1700.91287216087,0.582669341382478
