***Scan Config Information***,,,,,,,***Reference Scan Information***,,,,,,,,
Scan Config Name:,FolHerbario,,,,,,Scan Config Name:,Local New Reference,,,,,,,
Scan Config Type:,Slew,Num Section:,1,,,,Scan Config Type:,Slew,Num Section:,1,,,,,
Section Config Type:,Column,,,,,,Section Config Type:,Column,,,,,,,
Start Wavelength (nm):,900,,,,,,Start Wavelength (nm):,900,,,,,,,
End Wavelength (nm):,1700,,,,,,End Wavelength (nm):,1700,,,,,,,
Pattern Width (nm):,7.03,,,,,,Pattern Width (nm):,7.03,,,,,,,
Exposure (ms):,0.635,,,,,,Exposure (ms):,0.635,,,,,,,
Digital Resolution:,228,,,,,,Digital Resolution:,228,,,,,,,
Num Repeats:,20,,,,,,Num Repeats:,20,,,,,,,
PGA Gain:,64,(FixedPGA),,,,,PGA Gain:,64,(AutoPGA),,,,,,
System Temp (C):,40,,,,,,System Temp (C):,39.77,,,,,,,
Humidity (%):,42.63,,,,,,Humidity (%):,43.47,,,,,,,
Lamp ADC:,3083,3086,851,854,,,Lamp ADC:,3083,3086,851,853,,,,
Data Date-Time:,2025/04/03T11:13:16,,,,,,Data Date-Time:,2025/04/03T11:07:08,,,,,,,
Total Measurement Time in sec:,6.4748244,,,,,,,,,,,,,,
,,,,,,,,,,,,,,,
***General Information***,,,,,,,***Calibration Coefficients***,,,,,,,,
Model Name:,NIR-S-G1,,,,,,Shift Vector Coefficients:,-2.27453457587495,0.0384893477179632,-0.000120883834660424,,,,,
Serial Number:,C23R004,(95UB125GC0VC23R004),,,,,Pixel to Wavelength Coefficients:,1773.06832862561,-0.918144602406657,-0.000240533803363975,,,,,
GUI Version:,3.13.1,Revision:,930,,,,Versions (Cal/Ref/Cfg):,1,3,1,,,,,
TIVA Version:,2.4.10,,,,,,***Lamp Usage ***,,,,,,,,
DLPC Version:,2.3.1,,,,,,Total Time(hh:mm:ss):,10min 24sec ,,,,,,,
UUID:,DE:67:0C:88:67:66:73:21,,,,,,***Device/Error/Activation Status***,,,,,,,,
Main Board Version:,F,,,,,,Device Status:,0x00000001,Activation Status:,Activated,,,,,
Detector Board Version:,C,,,,,,Error status:,0x00000000,Error Code:,0x00000000000000000000000000000000,,,,,
,,,,,,,,,Error Details:,Not found,,,,,
***Scan Data***,,,,,,,,,,,,,,,
Wavelength (nm),Absorbance (AU),Reference Signal (unitless),Sample Signal (unitless)
900.860912737931,0.270288279508305,117790,63215
904.749703961815,0.268423339195144,126677,68277
909.9280239805,0.266259208521107,138540,75044
913.806712784643,0.2653421460157,149349,81070
917.681071980326,0.265276823863548,162222,88071
921.551101567548,0.264730956207011,177966,96740
925.41680154631,0.262557584563684,196506,107354
929.278171916611,0.262160003079218,217860,119129
933.135212678451,0.260665263529426,240217,131807
936.987923831831,0.260098740868669,262304,144114
942.118137089843,0.257733916439952,288415,159325
945.960745823482,0.257643898185451,305576,168840
949.79902494866,0.256474787713921,321429,178078
953.632974465377,0.255035433630158,335515,186499
957.462594373634,0.254310705171582,349198,194429
961.287884673431,0.253751549836022,362458,202072
965.108845364766,0.253293264209444,374975,209271
970.196724673387,0.252340325696177,391206,218809
974.007582944981,0.251621255772315,402807,225671
977.814111608115,0.251471709539344,414286,232182
981.616310662789,0.251197027794715,424700,238169
985.414180109002,0.250585253220305,434033,243746
989.207719946754,0.250013020213193,442579,248873
992.996930176046,0.249324294158425,450441,253696
996.781810796877,0.249679238641141,457775,257616
1001.82158334482,0.248377755631769,466229,263161
1005.59636154591,0.24773687884856,471558,266562
1009.36681013854,0.247966377516805,475972,268915
1013.13292912271,0.246976246601509,479642,271607
1016.89471849842,0.246440176409239,482950,273818
1020.65217826567,0.246095791247562,484964,275178
1024.40530842446,0.245891567294541,486797,276348
1028.15410897478,0.245494603849342,488524,277582
1033.14577476206,0.244972084211907,489661,278563
1036.88447289264,0.244234679360992,490178,279331
1040.61884141477,0.243821420944954,490385,279715
1044.34888032843,0.243148967458986,490470,280197
1048.07458963364,0.243134140595177,489298,279537
1051.79596933038,0.242767397515965,488056,279063
1055.51301941866,0.24258277744749,486485,278283
1059.22573989848,0.241920743315145,485442,278110
1064.16929892509,0.241371939841142,484686,278028
1067.87191698517,0.24137462534382,485470,278476
1071.57020543679,0.241327348818377,486280,278971
1075.26416427995,0.241042604821347,487867,280065
1078.95379351464,0.240398904961491,489143,281214
1082.63909314088,0.240564210856193,491118,282242
1086.32006315866,0.240358751440882,494152,284120
1091.22128823587,0.239676464472816,496759,286068
1094.89215583391,0.240050281979544,500847,288174
1098.55869382348,0.239217941748161,504249,290688
1102.2209022046,0.23940644710254,507852,292638
1105.87878097725,0.239558639561259,511884,294858
1109.53233014145,0.239030584710056,515602,297361
1113.18154969718,0.239253472360087,520058,299777
1116.82643964446,0.239498551475249,523811,301770
1121.67955796099,0.239762197288417,528895,304514
1125.31434548853,0.239815477706723,533141,306921
1128.9448034076,0.239458773185407,536907,309343
1132.57093171821,0.239795248647153,541511,311754
1136.19273042036,0.240199105800189,546024,314060
1139.81019951405,0.240513899123947,550138,316197
1143.42333899928,0.240477747433092,554144,318526
1147.03214887605,0.241178430269582,558888,320735
1151.83716043191,0.241681470901609,564724,323709
1155.43586788894,0.241816764290371,569322,326243
1159.03024573751,0.242966958748061,574207,328172
1162.62029397761,0.243377759285504,579353,330800
1166.20601260926,0.243624270036232,584359,333469
1169.78740163244,0.244322945632165,589328,335764
1173.36446104717,0.245026528313329,594712,338283
1176.93719085343,0.245393939863612,600837,341478
1181.69409564862,0.246618668635406,608346,344772
1185.25672303515,0.246936368609738,615065,348325
1188.81502081321,0.246779675458388,621240,351949
1192.36898898281,0.247348754016378,628223,355439
1195.91862754395,0.247467692348711,635557,359490
1199.46393649663,0.247174655507864,642190,363487
1203.00491584085,0.247574317677612,649975,367555
1206.54156557661,0.247146445385318,657412,372127
1211.25036361113,0.246489027211259,667146,378209
1214.77691092715,0.245712762948266,674815,383241
1218.29912863471,0.245097363788266,682324,388055
1221.8170167338,0.244213124271569,689938,393185
1225.33057522444,0.243271603802184,697498,398356
1228.83980410662,0.242903079977129,704576,402740
1232.34470338033,0.242122424628623,711197,407256
1237.01116746546,0.241386116553397,719701,412825
1240.50596431943,0.240815797913703,725726,416828
1243.99643156495,0.240445571927461,731805,420678
1247.482569202,0.240091790101951,739488,425441
1250.96437723059,0.239731589249228,748123,430766
1254.44185565073,0.239698108170043,756592,435676
1257.9150044624,0.239268412277869,764853,440869
1261.38382366561,0.239350208276564,772979,445469
1266.00218099006,0.239051465661091,782366,451189
1269.46089777353,0.239015065176495,788740,454903
1272.91528494854,0.23867592788164,795115,458938
1276.36534251509,0.238596748565796,801031,462437
1279.81107047318,0.238409286850401,806664,465890
1283.2524688228,0.238355659781144,811675,468842
1286.68953756397,0.238104170545056,816029,471630
1290.12227669668,0.237818003616566,820224,474367
1294.69252726046,0.237923892484043,825469,477284
1298.11516397342,0.237570501927925,828119,479206
1301.53347107793,0.237574784020101,831300,481042
1304.94744857397,0.23760223976626,834116,482641
1308.35709646156,0.237840653281684,836113,483531
1311.76241474068,0.237634855566801,837625,484635
1315.16340341134,0.237773235137684,839301,485450
1318.56006247354,0.237821370431004,840224,485930
1323.08220627665,0.238180499917,841305,486153
1326.46876291911,0.238743255555014,841552,485666
1329.85098995311,0.238913149645244,841753,485592
1333.22888737865,0.239376403877212,841454,484902
1336.60245519573,0.239718947309976,841003,484260
1339.97169340435,0.240586325562754,839874,482645
1343.33660200451,0.241230704969531,838622,481211
1347.81641185822,0.242151035603458,835897,478632
1351.17121803864,0.243111420633115,833181,476023
1354.52169461059,0.243916748170093,828825,472657
1357.86784157409,0.245170237849123,825827,469590
1361.20965892912,0.245911594214973,822663,466993
1364.5471466757,0.24660912095766,819943,464702
1367.88030481381,0.247837463625345,818523,462587
1371.20913334347,0.248810863705816,817187,460798
1375.64083643651,0.249978059481537,813728,457616
1378.95956254642,0.251043573702675,808561,453596
1382.27395904787,0.252049101652621,803058,449467
1385.58402594086,0.2536241474017,798118,445085
1388.88976322539,0.255128346340316,792788,440584
1392.19117090146,0.256992872600041,785338,434574
1395.48824896907,0.259405052004265,778340,428316
1398.78099742822,0.262073275458844,772318,422399
1403.16459376059,0.266466195966937,766175,414822
1406.4472398,0.270662985667786,762787,409016
1409.72555623094,0.274930345273774,760068,403573
1412.99954305343,0.27931393196341,758040,398454
1416.26920026746,0.283542392308327,756126,393597
1419.53452787302,0.287617286850352,754262,388960
1422.79552587013,0.291125914251159,752850,385108
1426.05219425877,0.294448108235267,751697,381588
1430.38768383047,0.297799349926668,750679,378142
1433.63424979937,0.29996167550906,749921,375884
1436.87648615981,0.301183105766661,748964,374350
1440.11439291179,0.302423570075314,748514,373058
1443.34797005532,0.303109557008359,747762,372095
1446.57721759038,0.30327078170468,745971,371066
1449.80213551698,0.303913065436663,745255,370162
1453.02272383511,0.303209656608393,743466,369872
1457.31010664614,0.303633589034201,740665,368119
1460.52059254454,0.303587739377411,738235,366950
1463.72674883448,0.303287828868616,735532,365859
1466.92857551595,0.30339813769578,732805,364410
1470.12607258897,0.303138155905279,729382,362925
1473.31924005352,0.302244383679728,725560,361767
1476.50807790962,0.302049174934021,722271,360289
1480.75312677125,0.301481269908428,717341,358298
1483.93186220761,0.300544908493102,713149,356973
1487.1062680355,0.300164597911486,708399,354906
1490.27634425493,0.299792121880687,704182,353096
1493.44209086591,0.298859592164668,699195,351349
1496.60350786842,0.298147771370032,694136,349379
1499.76059526247,0.297405706851129,688651,347211
1502.91335304806,0.296623932529567,683340,345154
1507.11029514902,0.295270003590048,675594,342307
1510.25295051487,0.294729992284561,669791,339789
1513.39127627226,0.293425306554879,663755,337740
1516.52527242119,0.292471198865585,656992,335034
1519.65493896165,0.292012263367368,650917,332287
1522.78027589366,0.290549431988383,643783,329754
1525.90128321721,0.290018715226337,636562,326454
1529.01796093229,0.288811295165905,629387,323673
1533.16679627258,0.288224600179466,619325,318929
1536.27337156793,0.287666572303076,611321,315212
1539.37561725481,0.287346578621136,603677,311500
1542.47353333323,0.287056874950969,595795,307638
1545.5671198032,0.286085856099512,586820,303682
1548.6563766647,0.285548287169284,578133,299557
1551.74130391774,0.285043360075495,569600,295479
1554.82190156232,0.284342059163209,560230,291088
1558.92263014194,0.284344785691252,548068,284767
1561.99312536678,0.284216323156621,538657,279960
1565.05929098316,0.28395657618417,529255,275238
1568.12112699108,0.28381154637976,520011,270521
1571.17863339054,0.283347746310032,510527,265871
1574.23181018153,0.283534998271695,501069,260833
1577.28065736407,0.2828229956394,490770,255891
1580.32517493815,0.282465582876818,481122,251067
1584.37779675709,0.281881020529438,468093,244597
1587.41221191143,0.281500028539809,457889,239475
1590.4422974573,0.281058892948538,447992,234537
1593.46805339471,0.280990951509847,437798,229236
1596.48947972367,0.279984555677249,428178,224719
1599.50657644416,0.279364243914357,418200,219796
1602.5193435562,0.278942035404603,408721,215023
1606.52963142574,0.277475230712418,395876,208970
1609.53229611804,0.277865780365138,386342,203754
1612.53063120187,0.27715952169,376586,198932
1615.52463667724,0.27659831645358,367091,194167
1618.51431254415,0.275964502448118,357360,189296
1621.4996588026,0.275703992047072,347482,184174
1624.48067545259,0.275547502378133,338087,179259
1627.45736249411,0.275739478251031,328355,174022
1631.41954360299,0.27503250080285,315597,167533
1634.38612822478,0.275349501482513,306264,162460
1637.3483832381,0.274550904576703,297181,157932
1640.30630864297,0.275090092298793,288341,153044
1643.25990443938,0.275837194725297,279569,148133
1646.20917062732,0.275191543921949,270992,143802
1649.15410720681,0.277017745722244,262475,138698
1652.09471417783,0.275774168295525,253516,134348
1656.00878852603,0.27799243310134,242391,127798
1658.93929307732,0.278903238609476,233676,122945
1661.86546802014,0.280386210920241,224457,117692
1664.7873133545,0.281320565297087,214891,112434
1667.7048290804,0.282815555042243,204052,106396
1670.61801519784,0.283795527475917,192630,100214
1673.52687170682,0.286296764385629,179966,93088
1676.43139860734,0.288951640368139,165876,85277
1680.29736619487,0.291447282345892,144911,74072
1683.19179067565,0.292440306128129,128358,65461
1686.08188554796,0.293554902678781,112263,57106
1688.96765081182,0.294123910699519,96700,49125
1691.84908646722,0.298439612198948,83077,41787
1694.72619251415,0.298844262562594,70954,35656
1697.59896895263,0.301624747924536,60649,30283
1701.42260259077,0.305735537521579,49831,24647
