***Scan Config Information***,,,,,,,***Reference Scan Information***,,,,,,,,
Scan Config Name:,FolHerbario,,,,,,Scan Config Name:,Local New Reference,,,,,,,
Scan Config Type:,Slew,Num Section:,1,,,,Scan Config Type:,Slew,Num Section:,1,,,,,
Section Config Type:,Column,,,,,,Section Config Type:,Column,,,,,,,
Start Wavelength (nm):,900,,,,,,Start Wavelength (nm):,900,,,,,,,
End Wavelength (nm):,1700,,,,,,End Wavelength (nm):,1700,,,,,,,
Pattern Width (nm):,7.03,,,,,,Pattern Width (nm):,7.03,,,,,,,
Exposure (ms):,0.635,,,,,,Exposure (ms):,0.635,,,,,,,
Digital Resolution:,228,,,,,,Digital Resolution:,228,,,,,,,
Num Repeats:,20,,,,,,Num Repeats:,20,,,,,,,
PGA Gain:,64,(FixedPGA),,,,,PGA Gain:,64,(AutoPGA),,,,,,
System Temp (C):,40.93,,,,,,System Temp (C):,41,,,,,,,
Humidity (%):,40.24,,,,,,Humidity (%):,40.91,,,,,,,
Lamp ADC:,3083,3086,851,854,,,Lamp ADC:,3083,3085,851,854,,,,
Data Date-Time:,2025/04/03T11:45:37,,,,,,Data Date-Time:,2025/04/03T11:42:37,,,,,,,
Total Measurement Time in sec:,6.4895455,,,,,,,,,,,,,,
,,,,,,,,,,,,,,,
***General Information***,,,,,,,***Calibration Coefficients***,,,,,,,,
Model Name:,NIR-S-G1,,,,,,Shift Vector Coefficients:,-2.27453457587495,0.0384893477179632,-0.000120883834660424,,,,,
Serial Number:,C23R004,(95UB125GC0VC23R004),,,,,Pixel to Wavelength Coefficients:,1773.06832862561,-0.918144602406657,-0.000240533803363975,,,,,
GUI Version:,3.13.1,Revision:,930,,,,Versions (Cal/Ref/Cfg):,1,3,1,,,,,
TIVA Version:,2.4.10,,,,,,***Lamp Usage ***,,,,,,,,
DLPC Version:,2.3.1,,,,,,Total Time(hh:mm:ss):,14min 0sec ,,,,,,,
UUID:,DE:67:0C:88:67:66:73:21,,,,,,***Device/Error/Activation Status***,,,,,,,,
Main Board Version:,F,,,,,,Device Status:,0x00000001,Activation Status:,Activated,,,,,
Detector Board Version:,C,,,,,,Error status:,0x00000000,Error Code:,0x00000000000000000000000000000000,,,,,
,,,,,,,,,Error Details:,Not found,,,,,
***Scan Data***,,,,,,,,,,,,,,,
Wavelength (nm),Absorbance (AU),Reference Signal (unitless),Sample Signal (unitless)
900.860912737931,0.245406333536244,117775,66934
904.749703961815,0.244742139158381,126975,72273
909.9280239805,0.241811547288143,138785,79530
913.806712784643,0.24157963074067,149460,85693
917.681071980326,0.241463931865442,162278,93067
921.551101567548,0.23743320665853,177512,102753
925.41680154631,0.237332177043364,196447,113740
929.278171916611,0.235773688509342,217030,126109
933.135212678451,0.234723029682464,239492,139498
936.987923831831,0.233102199831668,261658,152979
942.118137089843,0.231462550521675,288215,169143
945.960745823482,0.231516964141253,305915,179508
949.79902494866,0.229763897440986,321240,189263
953.632974465377,0.229112865185232,336144,198341
957.462594373634,0.228813874449785,350139,206741
961.287884673431,0.22807705757377,363161,214794
965.108845364766,0.227364695684059,375840,222658
970.196724673387,0.226505454303603,392336,232891
974.007582944981,0.226495627411158,403998,239819
977.814111608115,0.225491754532984,415168,247020
981.616310662789,0.225155810392099,425528,253380
985.414180109002,0.224046523238185,435175,259787
989.207719946754,0.22370614416813,443645,265051
992.996930176046,0.222698700578266,451623,270444
996.781810796877,0.222551133924397,458748,274804
1001.82158334482,0.22174225579794,467567,280609
1005.59636154591,0.221471744573209,472866,283966
1009.36681013854,0.220630347977393,477324,287199
1013.13292912271,0.220676208195158,481347,289589
1016.89471849842,0.219871753647504,484083,291775
1020.65217826567,0.219344714725742,486245,293434
1024.40530842446,0.21905000258078,488361,294911
1028.15410897478,0.218358968485821,490091,296427
1033.14577476206,0.217659933303531,490932,297414
1036.88447289264,0.217104689536201,491617,298210
1040.61884141477,0.217107854563903,491947,298408
1044.34888032843,0.216213523802069,491853,298966
1048.07458963364,0.216350866095984,491059,298389
1051.79596933038,0.215979244333418,489511,297703
1055.51301941866,0.215201510637874,488041,297341
1059.22573989848,0.215069731667368,486787,296667
1064.16929892509,0.214492312194166,486114,296651
1067.87191698517,0.214450841321807,486800,297098
1071.57020543679,0.213719982379785,487753,298181
1075.26416427995,0.21367277278729,488997,298974
1078.95379351464,0.213169428060885,490342,300144
1082.63909314088,0.212926987881534,492462,301610
1086.32006315866,0.212816761980501,495130,303321
1091.22128823587,0.212680214717659,498256,305332
1094.89215583391,0.212191204579582,501829,307868
1098.55869382348,0.21219660572176,505643,310204
1102.2209022046,0.211584713070342,509116,312775
1105.87878097725,0.211396964018405,512931,315255
1109.53233014145,0.211195194334341,517139,317989
1113.18154969718,0.211226863484415,521002,320341
1116.82643964446,0.210964347669365,524923,322947
1121.67955796099,0.21089341731897,529989,326117
1125.31434548853,0.211033042035733,534287,328656
1128.9448034076,0.211141304406576,538448,331133
1132.57093171821,0.211187495682166,542540,333614
1136.19273042036,0.211534506381816,547010,336094
1139.81019951405,0.211482732361347,551145,338675
1143.42333899928,0.212408814211945,556061,340968
1147.03214887605,0.212175743852688,559862,343483
1151.83716043191,0.212618468310369,566191,347012
1155.43586788894,0.2127794909504,570759,349682
1159.03024573751,0.213405520220807,575216,351905
1162.62029397761,0.213550696659156,580142,354800
1166.20601260926,0.214046854262493,585356,357580
1169.78740163244,0.214307544403028,590492,360501
1173.36446104717,0.214683722668442,596035,363570
1176.93719085343,0.215349880469398,602076,366692
1181.69409564862,0.215283234348943,609486,371262
1185.25672303515,0.215806681677171,616125,374854
1188.81502081321,0.215920561969662,622659,378730
1192.36898898281,0.215957133835895,629650,382950
1195.91862754395,0.216159233210552,636875,387164
1199.46393649663,0.215859864644526,643720,391595
1203.00491584085,0.215473863428507,651181,396486
1206.54156557661,0.21570665137592,658818,400921
1211.25036361113,0.215061008001553,668608,407484
1214.77691092715,0.214342611697261,675854,412582
1218.29912863471,0.214118795571034,683995,417767
1221.8170167338,0.213737028344901,691403,422663
1225.33057522444,0.212727759232393,699006,428305
1228.83980410662,0.212082189098981,705767,433091
1232.34470338033,0.211538162682722,712603,437834
1237.01116746546,0.2111579481644,720850,443289
1240.50596431943,0.211021517713441,727183,447324
1243.99643156495,0.210877416490443,733590,451415
1247.482569202,0.210515770715311,740861,456269
1250.96437723059,0.210281816854482,749959,462121
1254.44185565073,0.210162350856742,758139,467290
1257.9150044624,0.209713054523901,766133,472706
1261.38382366561,0.209844115260289,774579,477773
1266.00218099006,0.209693003780388,784134,483835
1269.46089777353,0.209135934548162,789744,487922
1272.91528494854,0.209305678179597,796630,491984
1276.36534251509,0.209107279272464,802418,495785
1279.81107047318,0.20908851455503,808297,499439
1283.2524688228,0.209014528838009,813182,502543
1286.68953756397,0.208647614311344,817483,505628
1290.12227669668,0.208644976830262,821874,508347
1294.69252726046,0.208384547866124,826938,511786
1298.11516397342,0.208637132136776,830001,513383
1301.53347107793,0.208602308816121,833124,515356
1304.94744857397,0.208630868945066,835696,516913
1308.35709646156,0.208488679820124,837517,518209
1311.76241474068,0.208316441014068,838962,519309
1315.16340341134,0.2084939926174,840716,520182
1318.56006247354,0.208409603015843,841931,521035
1323.08220627665,0.208658327210968,842575,521135
1326.46876291911,0.209061954223376,843072,520958
1329.85098995311,0.209410267177633,843052,520528
1333.22888737865,0.209733860731664,843058,520144
1336.60245519573,0.210242950595338,842416,519139
1339.97169340435,0.210858334080592,841277,517703
1343.33660200451,0.211584982675487,840070,516096
1347.81641185822,0.212442830439178,837590,513557
1351.17121803864,0.213164543660552,834613,510882
1354.52169461059,0.213744414154397,830284,507554
1357.86784157409,0.21440591576478,827131,504857
1361.20965892912,0.215125447078271,824134,502195
1364.5471466757,0.215686152972471,821656,500039
1367.88030481381,0.216667987297905,819988,497897
1371.20913334347,0.216783710570093,818518,496872
1375.64083643651,0.218270107096302,815147,493135
1378.95956254642,0.218936041461626,810337,489474
1382.27395904787,0.219706071877065,804574,485132
1385.58402594086,0.221135566243425,799709,480614
1388.88976322539,0.222043813201983,794270,476348
1392.19117090146,0.223694777008263,786886,470129
1395.48824896907,0.225562825128419,779597,463775
1398.78099742822,0.227871504468966,773709,457832
1403.16459376059,0.231497946480557,767651,450470
1406.4472398,0.234163324317138,763610,445357
1409.72555623094,0.23778426083749,761189,440259
1412.99954305343,0.241819527755821,759337,435126
1416.26920026746,0.245122108917371,757275,430657
1419.53452787302,0.248538326636023,755622,426350
1422.79552587013,0.251678569504,754229,422498
1426.05219425877,0.254478078437464,753287,419259
1430.38768383047,0.25673482616645,751936,416338
1433.63424979937,0.258546514579455,751151,414172
1436.87648615981,0.259955495895081,750355,412393
1440.11439291179,0.260773573463625,749770,411296
1443.34797005532,0.261239439565086,748852,410352
1446.57721759038,0.261124480178904,747249,409582
1449.80213551698,0.261375469158871,746321,408837
1453.02272383511,0.261307392709281,745014,408185
1457.31010664614,0.261445967507317,741854,406324
1460.52059254454,0.261197716170513,739182,405092
1463.72674883448,0.261303187958913,736799,403688
1466.92857551595,0.260892893457335,733782,402415
1470.12607258897,0.26057515473981,730514,400916
1473.31924005352,0.260203714235576,726942,399297
1476.50807790962,0.259299030533845,723449,398207
1480.75312677125,0.258967032417029,718414,395738
1483.93186220761,0.258229439328711,714085,394022
1487.1062680355,0.258075774996726,709825,391810
1490.27634425493,0.257880664980073,705535,389617
1493.44209086591,0.256670175459083,700449,387888
1496.60350786842,0.256056993044711,695288,385574
1499.76059526247,0.2554878586801,689868,383070
1502.91335304806,0.254847729987328,684680,380750
1507.11029514902,0.254030735269263,676964,377168
1510.25295051487,0.252570700758392,670905,375051
1513.39127627226,0.252364969856041,664939,371892
1516.52527242119,0.251431118956129,658326,368986
1519.65493896165,0.250753484488184,651870,365938
1522.78027589366,0.249940522910696,645235,362892
1525.90128321721,0.249622541399893,638084,359133
1529.01796093229,0.249038949118171,630859,355544
1533.16679627258,0.248320746607399,620731,350415
1536.27337156793,0.247920602625012,612682,346190
1539.37561725481,0.24712116714761,604611,342259
1542.47353333323,0.247030336543178,596664,337831
1545.5671198032,0.246616684077112,588027,333258
1548.6563766647,0.246332495817561,579360,328561
1551.74130391774,0.245731718452088,570901,324212
1554.82190156232,0.245159965413764,561605,319353
1558.92263014194,0.245496695090482,549223,312070
1561.99312536678,0.244986389897605,540026,307205
1565.05929098316,0.244938538612649,530519,301830
1568.12112699108,0.244306453849086,521028,296862
1571.17863339054,0.244551973755494,511513,291276
1574.23181018153,0.243622099376503,501517,286196
1577.28065736407,0.243907507398923,491750,280438
1580.32517493815,0.243473600539654,482346,275350
1584.37779675709,0.242781220158969,469111,268222
1587.41221191143,0.242292189706128,459020,262748
1590.4422974573,0.241970477369503,449070,257243
1593.46805339471,0.241680555785435,438809,251533
1596.48947972367,0.241388301725975,429464,246342
1599.50657644416,0.240383201358352,419131,240972
1602.5193435562,0.239608215875942,409680,235959
1606.52963142574,0.239587892925021,397039,228689
1609.53229611804,0.238768693934432,387538,223638
1612.53063120187,0.23849487915702,377736,218119
1615.52463667724,0.238184594954531,367898,212590
1618.51431254415,0.237382285854881,358425,207499
1621.4996588026,0.237433644007285,348546,201756
1624.48067545259,0.237356838428994,338905,196210
1627.45736249411,0.237496895326949,329596,190759
1631.41954360299,0.237681807862331,316812,183282
1634.38612822478,0.236899102930264,307095,177981
1637.3483832381,0.236726142700493,298330,172970
1640.30630864297,0.236495866768691,289301,167824
1643.25990443938,0.236237784654147,280298,162698
1646.20917062732,0.237068701983528,271752,157436
1649.15410720681,0.23686711360164,263058,152470
1652.09471417783,0.237325547634322,254505,147357
1656.00878852603,0.237704549600124,243211,140695
1658.93929307732,0.240001372761015,234868,135152
1661.86546802014,0.240253765092235,225681,129790
1664.7873133545,0.241481815959554,216726,124288
1667.7048290804,0.242583851320443,206188,117945
1670.61801519784,0.243597757813911,195466,111551
1673.52687170682,0.244798614623494,183407,104380
1676.43139860734,0.247222567293564,169805,96101
1680.29736619487,0.249917430801801,149756,84230
1683.19179067565,0.251475102683178,133657,74906
1686.08188554796,0.252868927035875,117482,65630
1688.96765081182,0.252171707428261,101711,56911
1691.84908646722,0.255610620650758,87377,48505
1694.72619251415,0.258512452412218,74699,41191
1697.59896895263,0.259366695473301,63882,35157
1701.42260259077,0.260251678835798,52283,28715
