***Scan Config Information***,,,,,,,***Reference Scan Information***,,,,,,,,
Scan Config Name:,FolHerbario,,,,,,Scan Config Name:,Local New Reference,,,,,,,
Scan Config Type:,Slew,Num Section:,1,,,,Scan Config Type:,Slew,Num Section:,1,,,,,
Section Config Type:,Column,,,,,,Section Config Type:,Column,,,,,,,
Start Wavelength (nm):,900,,,,,,Start Wavelength (nm):,900,,,,,,,
End Wavelength (nm):,1700,,,,,,End Wavelength (nm):,1700,,,,,,,
Pattern Width (nm):,7.03,,,,,,Pattern Width (nm):,7.03,,,,,,,
Exposure (ms):,0.635,,,,,,Exposure (ms):,0.635,,,,,,,
Digital Resolution:,228,,,,,,Digital Resolution:,228,,,,,,,
Num Repeats:,20,,,,,,Num Repeats:,20,,,,,,,
PGA Gain:,64,(FixedPGA),,,,,PGA Gain:,64,(AutoPGA),,,,,,
System Temp (C):,40.29,,,,,,System Temp (C):,40.3,,,,,,,
Humidity (%):,41.16,,,,,,Humidity (%):,42.8,,,,,,,
Lamp ADC:,3068,3082,845,842,,,Lamp ADC:,3069,3082,845,842,,,,
Data Date-Time:,2025/04/03T11:59:51,,,,,,Data Date-Time:,2025/04/03T11:51:03,,,,,,,
Total Measurement Time in sec:,6.4739631,,,,,,,,,,,,,,
,,,,,,,,,,,,,,,
***General Information***,,,,,,,***Calibration Coefficients***,,,,,,,,
Model Name:,NIR-S-G1,,,,,,Shift Vector Coefficients:,-4.78706677830951,0.0420606707536571,-9.21439965724389E-05,,,,,
Serial Number:,C23R001,(95UB125GC0VC23R001),,,,,Pixel to Wavelength Coefficients:,1777.69850932213,-0.910890781979712,-0.000240535926235214,,,,,
GUI Version:,3.13.1,Revision:,930,,,,Versions (Cal/Ref/Cfg):,1,3,1,,,,,
TIVA Version:,2.4.10,,,,,,***Lamp Usage ***,,,,,,,,
DLPC Version:,2.3.1,,,,,,Total Time(hh:mm:ss):,12min 10sec ,,,,,,,
UUID:,DE:67:0C:88:67:3E:75:21,,,,,,***Device/Error/Activation Status***,,,,,,,,
Main Board Version:,F,,,,,,Device Status:,0x00000001,Activation Status:,Activated,,,,,
Detector Board Version:,C,,,,,,Error status:,0x00000000,Error Code:,0x00000000000000000000000000000000,,,,,
,,,,,,,,,Error Details:,Not found,,,,,
***Scan Data***,,,,,,,,,,,,,,,
Wavelength (nm),Reflectance (unitless)
900.868887283122,0.497580286198634
904.747472781646,0.504123004430691
909.912185107076,0.508537698825866
913.780668096698,0.512892920937748
917.644821439648,0.518026642491323
921.504645135925,0.520658124101654
925.36013918553,0.526887339982506
929.211303588463,0.531298131985309
933.058138344724,0.535593537021549
938.180516347137,0.540998199837788
942.017248594496,0.544983744811978
945.849651195182,0.549322266984894
949.677724149196,0.554272214201339
953.501467456539,0.556586606738767
957.320881117208,0.560325272078528
961.135965131206,0.564530387370534
966.216008810601,0.569073961193434
970.020990315697,0.571940413043591
973.821642174121,0.575055940996312
977.617964385872,0.578732378356547
981.409956950951,0.581919606234619
985.197619869358,0.584302962273449
988.980953141092,0.58804922717265
994.01866249747,0.591947670062524
997.791893260303,0.594014491545886
1001.56079437646,0.597487259253639
1005.32536584595,0.599730421721259
1009.08560766877,0.602848323277676
1012.84151984491,0.604969496148876
1016.59310237438,0.60786797371223
1021.58847740774,0.610945999788585
1025.32995742831,0.613348744309598
1029.06710780221,0.615737586581667
1032.79992852944,0.61839945391604
1036.52841960999,0.620091314893704
1040.25258104387,0.62279468845761
1043.97241283108,0.624625042457675
1047.68791497161,0.626961391582116
1052.63518281973,0.629705395944732
1056.34058245136,0.630853892822068
1060.04165243632,0.632860334693511
1063.73839277461,0.635063316321766
1067.43080346623,0.635635724781709
1071.11888451118,0.637687280938669
1074.80263590945,0.639587582375911
1079.70756943455,0.642134655737773
1083.38121832392,0.643551642661699
1087.05053756662,0.645500956581759
1090.71552716264,0.646475971781247
1094.376187112,0.648219720809302
1098.03251741468,0.648647649255724
1101.68451807069,0.650282877478373
1106.54711727277,0.651323469994782
1110.18901541988,0.652959046927964
1113.82658392031,0.654089617503909
1117.45982277408,0.654549381370524
1121.08873198117,0.654601400382936
1124.71331154159,0.654294902513693
1128.33356145534,0.655882758484843
1133.1538263344,0.655444650002151
1136.76397373924,0.655648208316958
1140.36979149742,0.655546387119768
1143.97127960892,0.65639370169792
1147.56843807374,0.655619632442709
1151.1612668919,0.655057714545894
1154.74976606338,0.654412363673563
1159.52769661943,0.65376112017687
1163.10609328201,0.653688260146666
1166.68016029792,0.652843648117703
1170.24989766716,0.652489048481918
1173.81530538972,0.652549570922297
1177.37638346562,0.652154885945575
1180.93313189484,0.651217450392659
1185.66872812787,0.649783134243458
1189.21537404818,0.650146070363829
1192.75769032183,0.649860886421957
1196.29567694881,0.650045892452934
1199.82933392911,0.649939879759519
1203.35866126274,0.65050498922274
1206.8836589497,0.651407382212396
1211.57692085971,0.652095303937716
1215.09181603776,0.653090981043453
1218.60238156915,0.654962685551083
1222.10861745386,0.656462019817399
1225.6105236919,0.658373993408843
1229.10810028326,0.659423908522944
1232.60134722796,0.661142202164794
1236.09026452598,0.661723031275546
1240.73541925074,0.662971593381542
1244.21423403986,0.66473833064535
1247.68871918231,0.665241796944574
1251.15887467809,0.66599295571599
1254.62470052719,0.666354056945989
1258.08619672962,0.667959625663682
1261.54336328538,0.667706701938604
1266.14618368713,0.66826373263972
1269.59324773399,0.668815364437541
1273.03598213417,0.669137312332196
1276.47438688769,0.670126614821004
1279.90846199453,0.669767844503175
1283.3382074547,0.670933286197667
1286.76362326819,0.671479873183778
1291.32410934692,0.671703248986398
1294.73942265151,0.672212840859051
1298.15040630944,0.672259255536406
1301.55706032069,0.67281175681444
1304.95938468526,0.672414211846768
1308.35737940317,0.673010621563069
1311.7510444744,0.673222749958972
1316.26919623011,0.67248015366766
1319.65275879245,0.672623799036344
1323.03199170811,0.67194240284383
1326.40689497709,0.671748577465127
1329.77746859941,0.670791208289752
1333.14371257505,0.669937524648666
1336.50562690402,0.668464575029086
1340.98144433671,0.666764705882353
1344.33325615678,0.665146792316057
1347.68073833018,0.663215137248624
1351.0238908569,0.661607437407863
1354.36271373695,0.659636861418883
1357.69720697033,0.657496493516081
1361.02737055704,0.656233601647508
1365.46085366672,0.653726829717151
1368.78091474452,0.651998020860726
1372.09664617566,0.649542281904357
1375.40804796012,0.648626571795523
1378.71512009791,0.646503658998325
1382.01786258902,0.644409850708179
1385.31627543347,0.641199684902162
1388.61035863124,0.637854266235501
1392.99573455567,0.632762672037597
1396.27971524454,0.62753730855566
1399.55936628673,0.621643230278049
1402.83468768226,0.614634292582287
1406.10567943111,0.606243654891881
1409.3723415333,0.596746240901413
1412.6346739888,0.587464094094522
1416.97771559022,0.575284759484138
1420.22994553682,0.567091836734694
1423.47784583676,0.559174784368485
1426.72141649002,0.552869007382371
1429.96065749661,0.547605067856179
1433.19556885653,0.543716588895991
1436.42615056978,0.540229356391623
1440.72685784817,0.537213252496652
1443.94733705251,0.536312888125115
1447.16348661018,0.536287279537133
1450.37530652118,0.535728486464085
1453.58279678551,0.535784622684019
1456.78595740317,0.536018302514907
1459.98478837415,0.536007067486879
1464.24316132953,0.536665805733813
1467.43188979161,0.536694607639225
1470.61628860702,0.537788612811839
1473.79635777575,0.538608845170696
1476.97209729782,0.540219221237148
1480.14350717321,0.541201689312831
1483.31058740193,0.542958005571226
1487.52662603429,0.544361207436624
1490.68360375411,0.546012115690648
1493.83625182725,0.546965996478648
1496.98457025372,0.548629265800635
1500.12855903353,0.550766352884383
1503.26821816666,0.552312314683096
1506.40354765311,0.553802094163986
1510.57725196245,0.556575367425658
1513.70247894001,0.558308334785531
1516.82337627089,0.559878500565114
1519.9399439551,0.561710953468799
1523.05218199264,0.563188570899767
1526.16009038351,0.564763041611694
1529.2636691277,0.566230475484169
1532.36291822522,0.567232846651785
1536.48851534932,0.56827921515309
1539.57766193794,0.569127849355798
1542.66247887988,0.570300090668012
1545.74296617516,0.571306874520387
1548.81912382376,0.571552529352713
1551.89095182569,0.57236420651016
1554.95845018095,0.573235942519808
1559.04171298203,0.574438900918827
1562.09910882838,0.57453163786674
1565.15217502807,0.575024385467391
1568.20091158108,0.575451572972011
1571.24531848742,0.576412092515166
1574.28539574709,0.577349825557938
1577.32114336008,0.577427773987971
1581.36207183814,0.578546272120087
1584.38771694224,0.580009489697799
1587.40903239966,0.580616445977523
1590.42601821041,0.581537212909813
1593.43867437448,0.58281601419442
1596.44700089189,0.584414551026579
1599.45099776262,0.586334930364188
1603.44959191766,0.587766282213054
1606.44348627949,0.589244260711097
1609.43305099465,0.589434343889477
1612.41828606314,0.591759262109227
1615.39919148495,0.592004499177428
1618.37576726009,0.593475807038197
1621.34801338856,0.593848100985984
1625.30427322059,0.595226313907758
1628.26641684016,0.59481512387758
1631.22423081305,0.595306739196132
1634.17771513927,0.595893840761142
1637.12686981883,0.595762307955589
1640.0716948517,0.595255676573749
1643.01219023791,0.594289386705839
1646.92611574692,0.594485984620291
1649.85650862422,0.592582838624252
1652.78257185485,0.591059239717899
1655.70430543881,0.590568549599247
1658.6217093761,0.587353669722917
1661.53478366672,0.586058061349899
1664.44352831066,0.584419265927011
1668.31511949665,0.580799688973845
1671.21376163169,0.578920704202025
1674.10807412006,0.57818889567567
1676.99805696176,0.575308187877572
1679.88371015678,0.571021412389467
1682.76503370514,0.568590714788161
1685.64202760682,0.567484356405236
1688.51469186182,0.5654076706806
1692.33817586257,0.562579876529839
1695.20073760867,0.558242955605109
1698.05896970811,0.555580290887504
1700.91287216087,0.553769054082272
