***Scan Config Information***,,,,,,,***Reference Scan Information***,,,,,,,,
Scan Config Name:,FolHerbario,,,,,,Scan Config Name:,Local New Reference,,,,,,,
Scan Config Type:,Slew,Num Section:,1,,,,Scan Config Type:,Slew,Num Section:,1,,,,,
Section Config Type:,Column,,,,,,Section Config Type:,Column,,,,,,,
Start Wavelength (nm):,900,,,,,,Start Wavelength (nm):,900,,,,,,,
End Wavelength (nm):,1700,,,,,,End Wavelength (nm):,1700,,,,,,,
Pattern Width (nm):,7.03,,,,,,Pattern Width (nm):,7.03,,,,,,,
Exposure (ms):,0.635,,,,,,Exposure (ms):,0.635,,,,,,,
Digital Resolution:,228,,,,,,Digital Resolution:,228,,,,,,,
Num Repeats:,20,,,,,,Num Repeats:,20,,,,,,,
PGA Gain:,64,(FixedPGA),,,,,PGA Gain:,64,(AutoPGA),,,,,,
System Temp (C):,39.04,,,,,,System Temp (C):,38.95,,,,,,,
Humidity (%):,44.36,,,,,,Humidity (%):,44.31,,,,,,,
Lamp ADC:,3066,3082,829,851,,,Lamp ADC:,3066,3081,829,851,,,,
Data Date-Time:,2025/04/03T10:47:41,,,,,,Data Date-Time:,2025/04/03T10:46:56,,,,,,,
Total Measurement Time in sec:,6.4847845,,,,,,,,,,,,,,
,,,,,,,,,,,,,,,
***General Information***,,,,,,,***Calibration Coefficients***,,,,,,,,
Model Name:,NIR-S-G1,,,,,,Shift Vector Coefficients:,0.392694521123758,0.0064508848494657,-3.36963000867986E-05,,,,,
Serial Number:,C23R003,(95UB125GC0VC23R003),,,,,Pixel to Wavelength Coefficients:,1737.96619343203,-0.927679554192883,-0.000240514673521399,,,,,
GUI Version:,3.13.1,Revision:,930,,,,Versions (Cal/Ref/Cfg):,1,3,1,,,,,
TIVA Version:,2.4.10,,,,,,***Lamp Usage ***,,,,,,,,
DLPC Version:,2.3.1,,,,,,Total Time(hh:mm:ss):,8min 14sec ,,,,,,,
UUID:,DE:67:0C:88:67:47:5F:21,,,,,,***Device/Error/Activation Status***,,,,,,,,
Main Board Version:,F,,,,,,Device Status:,0x00000001,Activation Status:,Activated,,,,,
Detector Board Version:,C,,,,,,Error status:,0x00000000,Error Code:,0x00000000000000000000000000000000,,,,,
,,,,,,,,,Error Details:,Not found,,,,,
***Scan Data***,,,,,,,,,,,,,,,
Wavelength (nm),Absorbance (AU),Reference Signal (unitless),Sample Signal (unitless)
901.114121469303,0.334488187655658,104427,48342
904.983805426851,0.332305323725338,112849,52504
908.849160120276,0.333456396687456,120689,56003
913.996231967317,0.330185685079753,133021,62192
917.851485044454,0.328438686956808,144374,67772
921.702408857468,0.325684133190431,157972,74627
925.549003406358,0.324769156844639,174511,82614
929.391268691125,0.32193147078381,192923,91929
933.229204711769,0.321161106498237,213155,101750
937.062811468289,0.319382219979621,233293,111820
942.16755273279,0.318106335714955,258969,124492
945.991057873023,0.317092202714802,276653,133304
949.810233749132,0.315902311341995,292915,141527
953.625080361117,0.31484912630344,309303,149808
957.435597708979,0.313872027241218,325257,157890
961.241785792718,0.312636416374917,340452,165737
966.309968826844,0.311177818157312,360289,175984
970.106055294295,0.310160490181486,373625,182926
973.897812497622,0.308839111310619,385512,189321
977.685240436826,0.308739208466015,397056,195035
981.468339111907,0.307479235797853,406575,200291
985.247108522864,0.306370215962653,414368,204652
989.021548669698,0.306101145016984,420886,208000
994.047401121285,0.304487526275398,427131,211872
997.811739651831,0.303736241895495,430780,214052
1001.57174891825,0.303144526483449,434008,215950
1005.32742892055,0.302406489690792,435775,217198
1009.07877965873,0.301828858932591,436945,218071
1012.82580113278,0.301152809780023,438550,219213
1016.56849334271,0.300426887058914,438952,219781
1021.55201521176,0.300006943163097,438849,219942
1025.2846058054,0.299679728667649,438351,219858
1029.01286713492,0.298953869517064,437822,219960
1032.73679920031,0.298046940319378,436714,219862
1036.45640200158,0.297779471766813,435663,219468
1040.17167553873,0.297006568372013,435893,219975
1045.1186391774,0.297806652367551,436800,220027
1048.82381109826,0.296463606193201,436425,220519
1052.524653755,0.29608446670996,436408,220703
1056.22116714761,0.296534954174032,437910,221233
1059.9133512761,0.29510192831035,438754,222392
1063.60120614046,0.295092117401448,439259,222653
1067.28473174071,0.294928029987578,440158,223193
1072.18936479684,0.294287130935651,441805,224359
1075.86278878079,0.294048455421856,443800,225496
1079.53188350063,0.293665090575206,445947,226787
1083.19664895633,0.293520521208666,448297,228058
1086.85708514792,0.293115330560851,450540,229413
1090.51319207538,0.293648290547771,451632,229687
1094.16496973872,0.29333099559768,453212,230659
1099.02727221231,0.293190634525769,455676,231988
1102.66894825936,0.292847465348764,457581,233142
1106.30629504229,0.292657212945769,459774,234362
1109.93931256109,0.292544798833667,461632,235370
1113.56800081577,0.291980911168663,463883,236825
1117.19235980633,0.292131739192142,466321,237987
1120.81238953276,0.292027150457474,468773,239296
1125.63236142381,0.29180038716747,472127,241134
1129.24228953396,0.292209209646492,474845,242294
1132.84788837998,0.292133308252884,477517,243700
1136.44915796188,0.292111894379605,480311,245138
1140.04609827965,0.291460523331021,483099,246931
1143.6387093333,0.291904665869934,486245,248285
1148.42212299398,0.291732320117374,490723,250671
1152.00463243134,0.291862542155287,494581,252566
1155.58281260458,0.291683561553501,498938,254896
1159.1566635137,0.292488519354874,503319,256658
1162.72618515869,0.291881413276617,507778,259294
1166.29137753957,0.291974177537501,512987,261898
1169.85224065631,0.292323925999026,517958,264223
1174.59332373445,0.292342580598397,525367,267991
1178.14408523491,0.292657272432161,532006,271181
1181.69051747124,0.292523244736105,537951,274296
1185.23262044346,0.29297511846577,545029,277616
1188.77039415154,0.292317512740246,551377,281275
1192.30383859551,0.292662907158681,558945,284909
1195.83295377535,0.293059422026492,566774,288636
1200.53170627095,0.292853044073558,577329,294151
1204.0507198345,0.29268945151032,585083,298214
1207.56540413393,0.293051804736338,593412,302207
1211.07575916924,0.292822215240644,601714,306597
1214.58178494043,0.292710271868173,610396,311101
1218.08348144749,0.292570619565853,617559,314853
1222.74567571271,0.292808368228891,627743,319870
1226.23727060348,0.292816821132611,634995,323559
1229.72453623013,0.292706132005085,641612,327014
1233.20747259266,0.292749843461757,648980,330736
1236.68607969106,0.291664762266582,657983,336163
1240.16035752534,0.291936563303542,668836,341494
1243.63030609549,0.292133481316293,678819,346434
1248.25016977818,0.291978650948128,691969,353271
1251.71001673204,0.292227400688967,701618,357992
1255.16553442179,0.292248906080889,710355,362432
1258.61672284741,0.291971564342016,718798,366974
1262.06358200891,0.292335080170578,726961,370831
1265.50611190628,0.292239955976256,734079,374544
1268.94431253953,0.292200860908678,740631,377921
1273.52184563968,0.292638972137296,748735,381671
1276.94994465664,0.292511401494269,754679,384814
1280.37371440948,0.292526388326062,759714,387368
1283.79315489819,0.292529093237186,764410,389760
1287.20826612279,0.292652597272513,768602,391786
1290.61904808326,0.29277584958939,772633,393729
1295.16002295302,0.292624028240777,777477,396336
1298.56070329721,0.292498227857099,779864,397668
1301.95705437726,0.29263042597143,782069,398671
1305.3490761932,0.29240563925342,784472,400103
1308.73676874501,0.292520565821562,786025,400789
1312.1201320327,0.292485856749446,787280,401461
1315.49916605626,0.292939191460723,788061,401440
1319.99781034349,0.29320184589424,788689,401517
1323.36674275077,0.293533631354951,789278,401510
1326.73134589392,0.293775717726521,788892,401090
1330.09161977295,0.293488674333952,788300,401054
1333.44756438786,0.293742311340381,788082,400709
1336.79917973864,0.294058060951585,787183,399961
1340.1464658253,0.294406270446249,785368,398719
1344.60277952999,0.294810133865527,782818,397055
1347.93996400036,0.29525066907171,780587,395522
1351.27281920661,0.295462639090411,777564,393798
1354.60134514873,0.29581348785956,772434,390884
1357.92554182674,0.296156803170268,768247,388458
1361.24540924061,0.296325285431309,765065,386699
1364.56094739037,0.297105708373209,762150,384534
1368.97493051252,0.297199041196922,759132,382929
1372.28036704598,0.297613158164182,757477,381730
1375.58147431533,0.298070511232909,754197,379677
1378.87825232055,0.298413799450923,749231,376879
1382.17070106165,0.29827025487461,743713,374227
1385.45882053862,0.299508198107525,739271,370933
1389.83624543039,0.299760526051824,732406,367275
1393.11426329108,0.300677942656725,725066,362827
1396.38795188764,0.301425778339643,716867,358107
1399.65731122008,0.302585092838537,708942,353204
1402.92234128839,0.303638453302939,702048,348922
1406.18304209259,0.30539893492809,696144,344588
1409.43941363266,0.30690581112333,692044,341372
1413.77450794189,0.309466249040237,689894,338311
1417.02077786567,0.311590815852868,689355,336397
1420.26271852533,0.31362835593155,688967,334634
1423.50032992086,0.315315918193964,688795,333253
1426.73361205227,0.316978256886215,688565,331869
1429.96256491956,0.318619402873276,688604,330636
1433.18718852272,0.320055700540912,688246,329373
1437.47995224942,0.321086670896841,686652,327831
1440.69447423629,0.32207787004118,686531,327026
1443.90466695905,0.322404514843885,685516,326297
1447.11053041767,0.322613992314393,684161,325495
1450.31206461218,0.323176237283273,682185,324135
1453.50926954256,0.323195031282328,680556,323347
1457.76547503888,0.323271825710306,677144,321669
1460.95257835298,0.323662182540089,674584,320165
1464.13535240295,0.323509586643154,671274,318706
1467.31379718879,0.324340219471345,667754,316429
1470.48791271052,0.324100050282334,663213,314451
1473.65769896812,0.324354451201921,659134,312334
1476.8231559616,0.323849240686679,654662,310576
1481.03703087538,0.324029842242334,648589,307567
1484.19238625257,0.323623675876874,643274,305332
1487.34341236563,0.323889273041823,638060,302672
1490.49010921458,0.324149837258041,632754,299975
1493.63247679939,0.323861619577756,627058,297472
1496.77051512009,0.323208749326676,620993,295038
1499.90422417666,0.323252191994984,614858,292094
1504.0757685079,0.322453516569101,605931,288383
1507.19937594819,0.322272962282362,598868,285140
1510.31865412435,0.321944932276281,591826,282000
1513.43360303639,0.322119954773434,584880,278578
1516.5442226843,0.321151755216881,577094,275483
1519.65051306809,0.320843867063155,569756,272173
1522.75247418776,0.320892914967236,562252,268558
1526.88168793646,0.320063067645992,551671,264008
1529.97354743984,0.319667914475089,543545,260356
1533.0610776791,0.319873288522788,535180,256228
1536.14427865423,0.319058003474886,526890,252733
1539.22315036524,0.319332170242632,518651,248624
1542.29769281213,0.319121949108342,510018,244604
1546.39034833045,0.319074772865657,498596,239152
1549.45478916105,0.319548890550276,490047,234795
1552.51490072752,0.318692995922006,480923,230878
1555.57068302988,0.318876688274857,472074,226534
1558.6221360681,0.318027958137255,463041,222634
1561.66925984221,0.318731676627657,454280,218068
1564.71205435219,0.317874006451956,445005,214038
1568.76237928798,0.317746373986024,432765,208212
1571.79507218167,0.318370645741278,423717,203566
1574.82343581124,0.317875784679678,414128,199186
1577.84747017669,0.31741356006467,404680,194849
1580.86717527801,0.317837346351122,395932,190451
1583.88255111521,0.317971723829503,386605,185907
1586.89359768829,0.317274615694935,377325,181736
1590.90159204153,0.316376200591665,365622,176464
1593.90253699832,0.316742723537235,356230,171786
1596.89915269099,0.317162155819643,347738,167529
1599.89143911953,0.315659166209403,338517,163652
1602.87939628395,0.315506209670401,329314,159259
1605.86302418424,0.314976110761251,320581,155225
1609.83446030711,0.316010556645098,308796,149163
1612.80798659112,0.315312953218622,300314,145299
1615.777183611,0.314257631548613,291447,141352
1618.74205136676,0.313551348237269,282303,137140
1621.7025898584,0.313334634988604,273887,133118
1624.65879908592,0.314062920445869,265563,128856
1627.61067904931,0.312127136825985,256655,125090
1631.53978458964,0.312582989767446,245895,119720
1634.48156293674,0.311694728774235,237577,115907
1637.41901201972,0.311927685490896,229655,111982
1640.35213183857,0.312350490581422,221729,108012
1643.28092239331,0.311232343830717,213972,104502
1646.20538368392,0.313104725240218,206527,100432
1649.1255157104,0.311976411047156,198513,96786
1653.01229066819,0.312187182498954,188817,92014
1655.92232107839,0.310962130070229,181291,88596
1658.82802222446,0.312752443112551,174121,84742
1661.72939410641,0.312256716197499,165875,80821
1664.62643672424,0.313150006221652,158058,76854
1667.51915007795,0.311903444676402,149113,72713
1671.36936680536,0.31489434851307,136666,66186
1674.25197854278,0.313213644483404,126012,61263
1677.13026101607,0.315390790700935,114523,55399
1680.00421422524,0.315156042587355,102240,49484
1682.87383817029,0.315705840014663,90015,43512
1685.73913285121,0.3151939504927,77974,37736
1688.60009826801,0.316587208464186,66614,32135
1692.40798441288,0.317215004454066,53333,25691
1695.25884821339,0.319449041064707,45178,21651
1698.10538274978,0.319479300264034,38205,18308
1700.94758802205,0.319468819949638,32188,15425
