***Scan Config Information***,,,,,,,***Reference Scan Information***,,,,,,,,
Scan Config Name:,FolHerbario,,,,,,Scan Config Name:,Local New Reference,,,,,,,
Scan Config Type:,Slew,Num Section:,1,,,,Scan Config Type:,Slew,Num Section:,1,,,,,
Section Config Type:,Column,,,,,,Section Config Type:,Column,,,,,,,
Start Wavelength (nm):,900,,,,,,Start Wavelength (nm):,900,,,,,,,
End Wavelength (nm):,1700,,,,,,End Wavelength (nm):,1700,,,,,,,
Pattern Width (nm):,7.03,,,,,,Pattern Width (nm):,7.03,,,,,,,
Exposure (ms):,0.635,,,,,,Exposure (ms):,0.635,,,,,,,
Digital Resolution:,228,,,,,,Digital Resolution:,228,,,,,,,
Num Repeats:,20,,,,,,Num Repeats:,20,,,,,,,
PGA Gain:,64,(FixedPGA),,,,,PGA Gain:,64,(AutoPGA),,,,,,
System Temp (C):,40.69,,,,,,System Temp (C):,40.32,,,,,,,
Humidity (%):,43.82,,,,,,Humidity (%):,43.33,,,,,,,
Lamp ADC:,3084,3085,851,853,,,Lamp ADC:,3083,3085,851,854,,,,
Data Date-Time:,2025/04/03T11:28:34,,,,,,Data Date-Time:,2025/04/03T11:22:20,,,,,,,
Total Measurement Time in sec:,6.4807475,,,,,,,,,,,,,,
,,,,,,,,,,,,,,,
***General Information***,,,,,,,***Calibration Coefficients***,,,,,,,,
Model Name:,NIR-S-G1,,,,,,Shift Vector Coefficients:,-2.27453457587495,0.0384893477179632,-0.000120883834660424,,,,,
Serial Number:,C23R004,(95UB125GC0VC23R004),,,,,Pixel to Wavelength Coefficients:,1773.06832862561,-0.918144602406657,-0.000240533803363975,,,,,
GUI Version:,3.13.1,Revision:,930,,,,Versions (Cal/Ref/Cfg):,1,3,1,,,,,
TIVA Version:,2.4.10,,,,,,***Lamp Usage ***,,,,,,,,
DLPC Version:,2.3.1,,,,,,Total Time(hh:mm:ss):,11min 54sec ,,,,,,,
UUID:,DE:67:0C:88:67:66:73:21,,,,,,***Device/Error/Activation Status***,,,,,,,,
Main Board Version:,F,,,,,,Device Status:,0x00000011,Activation Status:,Activated,,,,,
Detector Board Version:,C,,,,,,Error status:,0x00000000,Error Code:,0x00000000000000000000000000000000,,,,,
,,,,,,,,,Error Details:,Not found,,,,,
***Scan Data***,,,,,,,,,,,,,,,
Wavelength (nm),Absorbance (AU),Reference Signal (unitless),Sample Signal (unitless)
900.860912737931,0.315804398188864,118007,57030
904.749703961815,0.313397728255644,127012,61723
909.9280239805,0.311392183133868,138692,67711
913.806712784643,0.310492763662485,149398,73089
917.681071980326,0.30978349315541,162274,79518
921.551101567548,0.307681259973019,177979,87637
925.41680154631,0.306477040790233,196647,97098
929.278171916611,0.3056079305787,217820,107768
933.135212678451,0.303213897673224,240032,119414
936.987923831831,0.301485711306662,262211,130968
942.118137089843,0.300189832209975,288677,144618
945.960745823482,0.298258740018899,305868,153913
949.79902494866,0.296615527019988,321440,162362
953.632974465377,0.295801528689582,336285,170179
957.462594373634,0.294364863278397,350007,177710
961.287884673431,0.292766909279498,362858,184914
965.108845364766,0.292196714902902,375761,191741
970.196724673387,0.290775674637612,392133,200751
974.007582944981,0.289441667875339,403664,207290
977.814111608115,0.288548573900224,414796,213445
981.616310662789,0.287502824450662,425190,219321
985.414180109002,0.287091653213481,434956,224571
989.207719946754,0.286369971793231,443258,229238
992.996930176046,0.285471827858634,451315,233888
996.781810796877,0.284773213831151,458182,237829
1001.82158334482,0.284792267789976,466972,242381
1005.59636154591,0.283275217711298,472165,245934
1009.36681013854,0.283218802926014,476897,248431
1013.13292912271,0.283027321163158,480651,250497
1016.89471849842,0.282571952767808,483747,252375
1020.65217826567,0.282298241167261,485716,253562
1024.40530842446,0.282025488320357,487603,254707
1028.15410897478,0.281696044025559,489150,255709
1033.14577476206,0.281649913535873,490370,256374
1036.88447289264,0.281096782932271,490722,256885
1040.61884141477,0.281537564533111,491423,256991
1044.34888032843,0.28100035739491,491377,257285
1048.07458963364,0.281101796440443,490252,256636
1051.79596933038,0.280289275796674,488756,256332
1055.51301941866,0.280429626045612,486999,255328
1059.22573989848,0.280523127498711,486253,254882
1064.16929892509,0.280333356058524,485663,254684
1067.87191698517,0.280392112497852,486257,254961
1071.57020543679,0.280280731710269,486956,255393
1075.26416427995,0.280650679817403,488453,255960
1078.95379351464,0.281125588696227,489956,256467
1082.63909314088,0.280528812142119,492225,258009
1086.32006315866,0.280797085931479,494776,259186
1091.22128823587,0.280928660563354,497584,260578
1094.89215583391,0.281301392134798,501459,262382
1098.55869382348,0.280968249493142,505167,264525
1102.2209022046,0.281104839471274,508455,266163
1105.87878097725,0.281643402986731,512370,267880
1109.53233014145,0.281709961000262,516483,269989
1113.18154969718,0.281646583559132,520409,272081
1116.82643964446,0.28200001064655,524085,273780
1121.67955796099,0.282135123574318,529512,276529
1125.31434548853,0.282493284604021,533615,278442
1128.9448034076,0.283616305257038,537652,279824
1132.57093171821,0.284310006030781,542218,281750
1136.19273042036,0.284520211036227,546339,283754
1139.81019951405,0.285133265722611,550645,285587
1143.42333899928,0.286091075185411,554854,287136
1147.03214887605,0.28734368633479,559569,288742
1151.83716043191,0.287522649186537,565296,291577
1155.43586788894,0.288273755967751,569848,293417
1159.03024573751,0.289507158839378,574618,295034
1162.62029397761,0.290805186380812,579780,296796
1166.20601260926,0.291700156255354,585075,298890
1169.78740163244,0.292442394939115,590021,300902
1173.36446104717,0.293144919481661,595572,303242
1176.93719085343,0.294230205665735,601319,305404
1181.69409564862,0.29543417861607,609259,308580
1185.25672303515,0.296011846430265,615485,311319
1188.81502081321,0.296278887704795,622279,314562
1192.36898898281,0.296766616000227,629084,317645
1195.91862754395,0.297184039858747,636090,320874
1199.46393649663,0.29726282759055,643254,324429
1203.00491584085,0.297455535305683,650738,328058
1206.54156557661,0.297361059023962,657958,331770
1211.25036361113,0.29687191817397,667962,337194
1214.77691092715,0.296530945405413,675771,341404
1218.29912863471,0.295999857634948,683282,345621
1221.8170167338,0.295190502904002,690270,349807
1225.33057522444,0.294544920415846,698462,354485
1228.83980410662,0.293937964580862,705172,358391
1232.34470338033,0.293495921087361,711747,362101
1237.01116746546,0.292518002873539,720207,367231
1240.50596431943,0.292178180024144,726330,370643
1243.99643156495,0.291827075634319,732702,374197
1247.482569202,0.29149125911001,740226,378332
1250.96437723059,0.291227013842882,748876,382986
1254.44185565073,0.290962834025732,757273,387516
1257.9150044624,0.290433954911991,765314,392108
1261.38382366561,0.290875830739967,773705,396004
1266.00218099006,0.290408977996323,783042,401214
1269.46089777353,0.290385371312246,789022,404300
1272.91528494854,0.290063905439727,795406,407873
1276.36534251509,0.290192996549906,801637,410946
1279.81107047318,0.28999797107678,807150,413958
1283.2524688228,0.290159277895935,811981,416281
1286.68953756397,0.28980478460963,816684,419034
1290.12227669668,0.290205852955941,820987,420853
1294.69252726046,0.290061428476329,825954,423540
1298.11516397342,0.290239518794808,828907,424880
1301.53347107793,0.290004984608082,831862,426625
1304.94744857397,0.290360419147544,834557,427657
1308.35709646156,0.290290895876607,836437,428689
1311.76241474068,0.290385472034912,837956,429374
1315.16340341134,0.290749161599527,839619,429866
1318.56006247354,0.291122200204553,840839,430121
1323.08220627665,0.291314501270657,841892,430469
1326.46876291911,0.291482277599187,841781,430246
1329.85098995311,0.29192998287236,842093,429962
1333.22888737865,0.292471643423152,841834,429294
1336.60245519573,0.292761979589497,841251,428710
1339.97169340435,0.29364362779457,840135,427273
1343.33660200451,0.294193419169229,838693,426000
1347.81641185822,0.295037347925041,836103,423860
1351.17121803864,0.295793441945671,833100,421603
1354.52169461059,0.297046511703344,829019,418329
1357.86784157409,0.297698707294742,825577,415967
1361.20965892912,0.298372708864758,822500,413774
1364.5471466757,0.298989924176998,819796,411828
1367.88030481381,0.299630291696163,818119,410380
1371.20913334347,0.30058489279284,817232,409035
1375.64083643651,0.301383101257708,813313,406326
1378.95956254642,0.302489403283319,808103,402696
1382.27395904787,0.303566623253652,802572,398949
1385.58402594086,0.305004007027665,797474,395105
1388.88976322539,0.306255478009037,791721,391126
1392.19117090146,0.308226940516653,784544,385825
1395.48824896907,0.309459949981545,776497,380785
1398.78099742822,0.312135575692465,770536,375541
1403.16459376059,0.315622040557304,763894,369327
1406.4472398,0.318916427989103,759930,364634
1409.72555623094,0.322711008948599,757176,360152
1412.99954305343,0.326239833099361,755189,356300
1416.26920026746,0.330107158479604,752928,352084
1419.53452787302,0.333977930214149,751310,348210
1422.79552587013,0.337006084814258,749625,345015
1426.05219425877,0.339939358020205,748460,342160
1430.38768383047,0.343346449591039,747366,338990
1433.63424979937,0.345418957071271,746309,336899
1436.87648615981,0.346719840898677,745395,335480
1440.11439291179,0.348336815380359,745274,334179
1443.34797005532,0.349089901609117,744253,333143
1446.57721759038,0.349137285044574,742587,332361
1449.80213551698,0.350022163530941,741659,331270
1453.02272383511,0.349989941231401,740216,330650
1457.31010664614,0.350099431608478,736896,329084
1460.52059254454,0.350344283002797,735089,328092
1463.72674883448,0.350841845559616,732668,326637
1466.92857551595,0.350776096270083,729424,325240
1470.12607258897,0.350665468549004,726014,323802
1473.31924005352,0.350367586883172,722758,322571
1476.50807790962,0.350039866708478,719647,321425
1480.75312677125,0.349550544861953,714498,319485
1483.93186220761,0.349716740834809,710684,317658
1487.1062680355,0.34955098412427,706432,315878
1490.27634425493,0.349451189398879,701941,313942
1493.44209086591,0.349106865508348,697332,312128
1496.60350786842,0.348537429562465,692150,310215
1499.76059526247,0.347971461489026,687075,308342
1502.91335304806,0.347110714440754,681616,306499
1507.11029514902,0.34601290560373,674212,303937
1510.25295051487,0.344988949252784,668508,302077
1513.39127627226,0.343969787082017,662766,300186
1516.52527242119,0.342885608494978,655927,297831
1519.65493896165,0.341242751534992,649714,296128
1522.78027589366,0.340290520389101,643293,293845
1525.90128321721,0.339414078668458,636025,291112
1529.01796093229,0.337828670358237,629062,288978
1533.16679627258,0.336460533947052,618794,285158
1536.27337156793,0.335424560385289,610836,282163
1539.37561725481,0.334198919039369,603055,279356
1542.47353333323,0.332841764921784,595122,276544
1545.5671198032,0.33236503738944,586423,272801
1548.6563766647,0.330946539489122,578130,269823
1551.74130391774,0.329773452022315,569536,266531
1554.82190156232,0.32904461703553,560481,262734
1558.92263014194,0.327668010897027,548198,257792
1561.99312536678,0.326582438634571,538614,253919
1565.05929098316,0.325732326890293,529391,250060
1568.12112699108,0.32492375304108,520144,246150
1571.17863339054,0.324043548397335,510200,241934
1574.23181018153,0.323507094196896,500764,237753
1577.28065736407,0.322094457184272,490799,233781
1580.32517493815,0.321501569743445,481563,229695
1584.37779675709,0.319863439932438,468204,224167
1587.41221191143,0.318363387455906,458114,220095
1590.4422974573,0.31684342769385,448194,216084
1593.46805339471,0.315916387609586,438148,211692
1596.48947972367,0.314097063723549,428544,207921
1599.50657644416,0.313539416625325,418869,203488
1602.5193435562,0.31133332545317,408913,199663
1606.52963142574,0.309566309152901,396328,194307
1609.53229611804,0.308335534639819,386729,190139
1612.53063120187,0.306208388758637,377039,186285
1615.52463667724,0.305554209697609,367450,181821
1618.51431254415,0.304419182471478,357753,177486
1621.4996588026,0.303485041669982,348412,173224
1624.48067545259,0.301452550477197,338305,168988
1627.45736249411,0.300702471422796,328722,164485
1631.41954360299,0.29934899340168,316130,158678
1634.38612822478,0.297814818828008,306701,154490
1637.3483832381,0.296746993639399,297757,150354
1640.30630864297,0.296512121650994,288895,145958
1643.25990443938,0.295563726907905,280039,141793
1646.20917062732,0.294216739376181,271253,137771
1649.15410720681,0.293608076800296,262989,133761
1652.09471417783,0.293950621598086,254283,129231
1656.00878852603,0.292520680091964,242588,123694
1658.93929307732,0.293057998053321,234215,119277
1661.86546802014,0.292832000585096,225075,114682
1664.7873133545,0.293687584371079,215598,109637
1667.7048290804,0.294577956835748,205181,104126
1670.61801519784,0.294479252572736,194039,98494
1673.52687170682,0.295711538276066,181715,91977
1676.43139860734,0.296905669291145,167892,84747
1680.29736619487,0.299092680497742,147401,74030
1683.19179067565,0.298796688959568,130925,65800
1686.08188554796,0.300697492477324,114896,57492
1688.96765081182,0.300063316876343,99177,49699
1691.84908646722,0.299889820564683,85210,42717
1694.72619251415,0.305060002401109,72863,36095
1697.59896895263,0.303286438873333,62329,31003
1701.42260259077,0.303704262685229,51150,25418
