***Scan Config Information***,,,,,,,***Reference Scan Information***,,,,,,,,
Scan Config Name:,FolHerbario,,,,,,Scan Config Name:,Local New Reference,,,,,,,
Scan Config Type:,Slew,Num Section:,1,,,,Scan Config Type:,Slew,Num Section:,1,,,,,
Section Config Type:,Column,,,,,,Section Config Type:,Column,,,,,,,
Start Wavelength (nm):,900,,,,,,Start Wavelength (nm):,900,,,,,,,
End Wavelength (nm):,1700,,,,,,End Wavelength (nm):,1700,,,,,,,
Pattern Width (nm):,7.03,,,,,,Pattern Width (nm):,7.03,,,,,,,
Exposure (ms):,0.635,,,,,,Exposure (ms):,0.635,,,,,,,
Digital Resolution:,228,,,,,,Digital Resolution:,228,,,,,,,
Num Repeats:,20,,,,,,Num Repeats:,20,,,,,,,
PGA Gain:,64,(FixedPGA),,,,,PGA Gain:,64,(AutoPGA),,,,,,
System Temp (C):,40.98,,,,,,System Temp (C):,40.81,,,,,,,
Humidity (%):,47.91,,,,,,Humidity (%):,47.53,,,,,,,
Lamp ADC:,3077,3078,831,849,,,Lamp ADC:,3077,3078,831,849,,,,
Data Date-Time:,2025/04/03T11:01:34,,,,,,Data Date-Time:,2025/04/03T10:59:33,,,,,,,
Total Measurement Time in sec:,6.4662056,,,,,,,,,,,,,,
,,,,,,,,,,,,,,,
***General Information***,,,,,,,***Calibration Coefficients***,,,,,,,,
Model Name:,NIR-S-G1,,,,,,Shift Vector Coefficients:,-5.74589567087503,0.0468271937173058,-9.53581739805986E-05,,,,,
Serial Number:,C23R002,(95UB125GC0VC23R002),,,,,Pixel to Wavelength Coefficients:,1756.1983651918,-0.919335509971685,-0.000241825006214287,,,,,
GUI Version:,3.13.1,Revision:,930,,,,Versions (Cal/Ref/Cfg):,1,3,1,,,,,
TIVA Version:,2.4.10,,,,,,***Lamp Usage ***,,,,,,,,
DLPC Version:,2.3.1,,,,,,Total Time(hh:mm:ss):,9min 17sec ,,,,,,,
UUID:,DE:67:0C:88:67:76:74:21,,,,,,***Device/Error/Activation Status***,,,,,,,,
Main Board Version:,F,,,,,,Device Status:,0x00000001,Activation Status:,Activated,,,,,
Detector Board Version:,C,,,,,,Error status:,0x00000000,Error Code:,0x00000000000000000000000000000000,,,,,
,,,,,,,,,Error Details:,Not found,,,,,
***Scan Data***,,,,,,,,,,,,,,,
Wavelength (nm),Absorbance (AU),Reference Signal (unitless),Sample Signal (unitless)
901.701099874012,0.553096448148584,90964,25455
905.577788882674,0.541007690880133,98351,28299
909.450125041225,0.534642794996006,106246,31022
913.318108349663,0.530036013271537,115447,34068
917.18173880799,0.523077049864218,126321,37879
921.041016416205,0.517996286891341,139605,42355
926.179948793651,0.510305892900864,161383,49837
930.029069751605,0.505884666611352,182103,56811
933.873837859447,0.500660751670745,204515,64575
937.714253117177,0.494057413978179,225747,72371
941.550315524795,0.49112564431867,244265,78838
945.382025082302,0.485156159689495,259670,84970
949.209381789697,0.480761583904796,272908,90210
954.305752966049,0.474156284123592,288448,96808
958.122953023182,0.468571704367883,298273,101401
961.935800230204,0.46534149378498,307873,105446
965.744294587114,0.460287610549623,317090,109874
969.548436093912,0.455789736081773,325819,114074
973.348224750598,0.452085483734816,334221,118018
977.143660557173,0.447696126204357,342744,122257
982.197470532431,0.442087079618367,353401,127697
985.982749688744,0.438168685203502,361052,131644
989.763675994946,0.434045145980239,368833,135764
993.540249451036,0.429529102252573,376057,139870
997.312470057013,0.424868044221852,382770,143903
1001.08033781288,0.421124638938789,389817,147821
1004.84385271863,0.418233757321696,395975,151159
1009.8551014928,0.412862778973461,404221,156227
1013.60845974829,0.409213971386886,409460,159587
1017.35746515367,0.40491865051123,414322,163087
1021.10211770894,0.402304971313591,418485,165720
1024.8424174141,0.398383538596104,422241,168724
1028.57836426914,0.39474194269142,425247,171356
1032.30995827408,0.390961067559534,427608,173814
1037.27864584715,0.386493853051371,430257,176699
1041.00008320182,0.38311040973102,432504,179011
1044.71716770638,0.379947262076969,434196,181025
1048.42989936083,0.376358752313162,435728,183171
1052.13827816517,0.372615375367988,437033,185310
1055.8423041194,0.368339151992337,438832,187914
1059.54197722351,0.365540914157771,440153,189698
1064.46810359549,0.361516712228641,440721,191711
1068.15762004934,0.3587429045822,439208,192277
1071.84278365308,0.35668878556869,436017,191785
1075.52359440671,0.35508519599767,432906,191121
1079.20005231022,0.352344303972101,430923,191450
1082.87215736363,0.350322242364511,430680,192235
1086.53990956692,0.348245799662813,431152,193368
1091.42347473781,0.345040600738638,432623,195465
1095.08107029084,0.342172618498199,435103,197888
1098.73431299376,0.340192123174548,437422,199852
1102.38320284657,0.337530976662098,441202,202818
1106.02773984926,0.336097939165746,444859,205175
1109.66792400185,0.333868161981363,448625,207977
1113.30375530432,0.331290998217368,453315,211402
1118.14475927411,0.328852668298365,459511,215498
1121.77043392632,0.327339766315729,464462,218580
1125.39175572842,0.325271676680666,469964,222225
1129.00872468041,0.323395380363285,475489,225811
1132.62134078229,0.322282303063853,481142,229082
1136.22960403405,0.320802629208951,487066,232694
1139.83351443571,0.318817197556942,492410,236325
1144.6319572044,0.31698091558137,500138,241051
1148.22571095579,0.315946718632886,505659,244293
1151.81511185707,0.3148011340708,511474,247755
1155.40015990824,0.313353947421072,516797,251169
1158.9808551093,0.312073857895996,522844,254858
1162.55719746024,0.311335169105389,528802,258201
1166.12918696107,0.310068545296706,534011,261506
1170.88506852868,0.308686125230726,542107,266317
1174.44690137925,0.307356883536149,547827,269952
1178.00438137971,0.306655578972294,554008,273439
1181.55750853005,0.305298431786412,559799,277162
1185.10628283029,0.304888279806114,566216,280604
1188.65070428041,0.303766011458519,572761,284582
1192.19077288043,0.302890462803459,579453,288488
1196.90409324693,0.301069866628609,588222,294084
1200.43400519669,0.300150536403572,594944,298075
1203.95956429632,0.299507773336372,602074,302094
1207.48077054585,0.298592835445143,608969,306198
1210.99762394527,0.297800174426321,616103,310351
1214.51012449457,0.296432050658551,623203,314918
1218.01827219376,0.295475069709514,630397,319256
1222.68903135918,0.294301739643808,639915,324953
1226.18702240811,0.293453611768696,646141,328756
1229.68066060693,0.292544510635051,653196,333042
1233.16994595564,0.291264707961832,660463,337741
1236.65487845423,0.291039281702303,668855,342210
1240.13545810271,0.290009295469427,678461,347949
1243.61168490109,0.289286841585435,688655,353765
1248.23988286541,0.288703795768549,701316,360753
1251.70595301352,0.287967472886119,708609,365123
1255.16767031152,0.287148740378202,716092,369675
1258.6250347594,0.2866094652884,723774,374105
1262.07804635718,0.286160951281972,730317,377877
1265.52670510484,0.285062435535621,736297,381936
1268.97101100239,0.284952459098464,742569,385287
1273.55664776562,0.283991986626509,751165,390610
1276.99079701291,0.283474729009993,756498,393852
1280.42059341009,0.282897188443222,761606,397039
1283.84603695715,0.282379098999731,767147,400405
1287.26712765411,0.281349863121138,772279,404040
1290.68386550095,0.281058073733255,777504,407047
1294.09625049768,0.280536924705211,782047,409917
1298.63932605982,0.279824413903375,788719,414093
1302.04155440629,0.279377355087944,793121,416833
1305.43942990264,0.279157716164908,797676,419439
1308.83295254889,0.278681682849765,801274,421793
1312.22212234502,0.278169131042986,805526,424532
1315.60693929105,0.277735286569353,809199,426894
1320.11325745224,0.277668614948976,813106,429021
1323.487917748,0.27736807137391,815142,430393
1326.85822519365,0.277132645985993,818081,432179
1330.22417978919,0.276942719239093,820359,433572
1333.58578153461,0.276811805194921,822287,434722
1336.94303042993,0.276784184722154,823292,435281
1340.29592647513,0.276885814854356,824896,436027
1344.75968343522,0.276777206233245,825991,436715
1348.10242283016,0.276841278351977,825290,436280
1351.44080937499,0.27684940236515,824108,435647
1354.77484306971,0.277006483828524,821982,434366
1358.10452391432,0.277018465917762,819976,433294
1361.42985190881,0.277066713717325,817883,432140
1364.75082705319,0.277112468290814,817407,431843
1369.17202281219,0.277307293224083,818215,432076
1372.48284130632,0.277120852165759,818267,432289
1375.78930695032,0.277662231613428,816134,430625
1379.09141974422,0.277612964067398,812475,428743
1382.38917968801,0.27763684257743,808936,426852
1385.68258678168,0.278501479250805,806268,424598
1388.97164102524,0.279197573368208,803514,422470
1393.35027558315,0.280229386124243,797971,418560
1396.62917317645,0.281215974485984,793805,415430
1399.90371791964,0.282436850954622,791734,413183
1403.17390981272,0.283928024673359,790925,411346
1406.43974885568,0.285738289482299,791290,409824
1409.70123504853,0.287330746858673,792412,408903
1412.95836839128,0.289404447808563,792840,407175
1417.29444174809,0.291615310650836,792661,405016
1420.54141844057,0.293761051338959,792797,403089
1423.78404228294,0.294919743512369,792868,402051
1427.0223132752,0.296730306759427,792396,400140
1430.25623141734,0.297967395092251,791457,398529
1433.48579670937,0.29909288315789,791217,397377
1436.71100915129,0.299938032528806,790069,396029
1441.00452130702,0.300151194814971,788423,395010
1444.21957709868,0.300719937025673,786904,393733
1447.43028004022,0.301181033159218,785123,392425
1450.63663013166,0.30117644839739,783004,391370
1453.83862737298,0.301057832805472,780088,390019
1457.0362717642,0.301278750256321,777137,388346
1460.2295633053,0.301427431895202,774014,386653
1464.48051425993,0.30164028214696,769094,384007
1467.66364915076,0.301416709849299,765129,382224
1470.84243119149,0.301312590248369,760969,380237
1474.01686038211,0.30102827311281,756367,378185
1477.18693672261,0.300752662495973,751424,375952
1480.35266021301,0.300793824732834,746390,373398
1483.51403085329,0.300406930968075,740411,370737
1487.72242060682,0.300088230239853,733354,367473
1490.87363459684,0.299836152456608,727284,364643
1494.02049573675,0.300257653319991,721362,361323
1497.16300402654,0.299505624051016,714984,358749
1500.30115946623,0.299292496174384,708699,355770
1503.4349620558,0.298643820679065,701698,352782
1506.56441179526,0.298244800405634,694462,349465
1510.7302403477,0.297697145744271,685126,345202
1513.8495334369,0.297438190702698,677686,341657
1516.96447367598,0.296683963848293,668566,337645
1520.07506106496,0.296610673984748,660845,333802
1523.18129560382,0.296089334777919,653163,330318
1526.28317729258,0.295684050856357,645025,326507
1529.38070613122,0.295007226709469,636111,322497
1533.50397348256,0.294558409174084,624727,317053
1536.59134567094,0.294226386210627,616179,312954
1539.67436500921,0.294146124258924,606998,308348
1542.75303149736,0.293849256403296,598079,304025
1545.82734513541,0.293574967218191,588656,299424
1548.89730592334,0.293214699777598,579240,294879
1551.96291386116,0.293091072075548,569488,289997
1556.04362001141,0.29272183719017,555803,283269
1559.09907129897,0.292806792609133,546115,278277
1562.15016973641,0.29264209305899,536213,273335
1565.19691532375,0.292571075983722,526024,268185
1568.23930806097,0.292683118208894,515736,262872
1571.27734794808,0.292499404603677,505732,257882
1574.31103498508,0.292618902357013,495653,252673
1578.34917993424,0.292891454307025,482122,245621
1581.37271032098,0.292557217663839,471858,240577
1584.39188785761,0.292322504838765,461829,235591
1587.40671254412,0.291988830905925,451316,230405
1590.41718438052,0.291811169040232,441036,225249
1593.42330336681,0.291398603532335,430148,219897
1596.42506950299,0.291368234788995,420424,214941
1600.42065325106,0.290513841194961,406489,208226
1603.41226273698,0.290791804381237,396531,202995
1606.39951937278,0.289380025491602,385978,198236
1609.38242315848,0.290265473147822,376714,193084
1612.36097409406,0.290080658194347,366908,188138
1615.33517217953,0.29050919832036,357084,182920
1618.30501741489,0.289611642512204,347292,178272
1622.25803996186,0.290477094149929,334762,171498
1625.21772854696,0.290513615266569,325535,166757
1628.17306428194,0.290569536890109,315934,161818
1631.12404716682,0.289841934976084,306252,157122
1634.07067720158,0.290311576932328,297553,152494
1637.01295438623,0.29105324009865,288232,147465
1639.95087872077,0.290641359574659,278738,142743
1643.86134006665,0.292234078188757,266180,135813
1646.78910775092,0.291415584384523,256870,131310
1649.71252258509,0.291923747792809,247578,126412
1652.63158456914,0.291011145434252,238844,122209
1655.54629370308,0.293768826283346,230071,116975
1658.45664998691,0.293451762290463,221387,112642
1661.36265342063,0.293454369609936,212428,108083
1665.23055356542,0.292771681315624,200079,101960
1668.12640034887,0.295419912437016,190209,96341
1671.01789428222,0.294630896020243,179876,91273
1673.90503536545,0.294548347069802,167925,85225
1676.78782359857,0.296496530741795,155241,78435
1679.66625898158,0.297570973146249,141562,71347
1682.54034151448,0.295402424760974,126895,64275
1686.36568045817,0.296972609248738,107178,54092
1689.22960634081,0.29723084391769,92531,46672
1692.08917937333,0.299687440031716,79131,39688
1694.94439955575,0.297524857908563,67378,33962
1697.79526688805,0.299131420928646,57062,28656
1700.64178137024,0.297903005031011,48712,24532
