***Scan Config Information***,,,,,,,***Reference Scan Information***,,,,,,,,
Scan Config Name:,FolHerbario,,,,,,Scan Config Name:,Local New Reference,,,,,,,
Scan Config Type:,Slew,Num Section:,1,,,,Scan Config Type:,Slew,Num Section:,1,,,,,
Section Config Type:,Column,,,,,,Section Config Type:,Column,,,,,,,
Start Wavelength (nm):,900,,,,,,Start Wavelength (nm):,900,,,,,,,
End Wavelength (nm):,1700,,,,,,End Wavelength (nm):,1700,,,,,,,
Pattern Width (nm):,7.03,,,,,,Pattern Width (nm):,7.03,,,,,,,
Exposure (ms):,0.635,,,,,,Exposure (ms):,0.635,,,,,,,
Digital Resolution:,228,,,,,,Digital Resolution:,228,,,,,,,
Num Repeats:,20,,,,,,Num Repeats:,20,,,,,,,
PGA Gain:,64,(FixedPGA),,,,,PGA Gain:,64,(AutoPGA),,,,,,
System Temp (C):,36.19,,,,,,System Temp (C):,34.58,,,,,,,
Humidity (%):,54.66,,,,,,Humidity (%):,55.5,,,,,,,
Lamp ADC:,3066,3082,830,851,,,Lamp ADC:,3066,3082,829,852,,,,
Data Date-Time:,2025/04/03T10:08:01,,,,,,Data Date-Time:,2025/04/03T10:04:10,,,,,,,
Total Measurement Time in sec:,6.4646457,,,,,,,,,,,,,,
,,,,,,,,,,,,,,,
***General Information***,,,,,,,***Calibration Coefficients***,,,,,,,,
Model Name:,NIR-S-G1,,,,,,Shift Vector Coefficients:,0.392694521123758,0.0064508848494657,-3.36963000867986E-05,,,,,
Serial Number:,C23R003,(95UB125GC0VC23R003),,,,,Pixel to Wavelength Coefficients:,1737.96619343203,-0.927679554192883,-0.000240514673521399,,,,,
GUI Version:,3.13.1,Revision:,930,,,,Versions (Cal/Ref/Cfg):,1,3,1,,,,,
TIVA Version:,2.4.10,,,,,,***Lamp Usage ***,,,,,,,,
DLPC Version:,2.3.1,,,,,,Total Time(hh:mm:ss):,4min 22sec ,,,,,,,
UUID:,DE:67:0C:88:67:47:5F:21,,,,,,***Device/Error/Activation Status***,,,,,,,,
Main Board Version:,F,,,,,,Device Status:,0x00000001,Activation Status:,Activated,,,,,
Detector Board Version:,C,,,,,,Error status:,0x00000000,Error Code:,0x00000000000000000000000000000000,,,,,
,,,,,,,,,Error Details:,Not found,,,,,
***Scan Data***,,,,,,,,,,,,,,,
Wavelength (nm),Absorbance (AU),Reference Signal (unitless),Sample Signal (unitless)
901.114121469303,0.179004188915488,104266,69046
904.983805426851,0.179076748852951,112980,74804
908.849160120276,0.175102333680864,120631,80604
913.996231967317,0.17573918388274,133167,88850
917.851485044454,0.176158665035759,144978,96637
921.702408857468,0.174465741534752,159204,106534
925.549003406358,0.174578504433303,176682,118199
929.391268691125,0.172700474793564,195710,131496
933.229204711769,0.171890542380417,215959,145372
937.062811468289,0.171118754264657,236292,159342
942.16755273279,0.168585890396332,260298,176557
945.991057873023,0.168437874516755,277494,188285
949.810233749132,0.167258283281834,293572,199736
953.625080361117,0.166069127547459,309422,211097
957.435597708979,0.165903429239233,325228,221965
961.241785792718,0.164755715447569,339974,232643
966.309968826844,0.164115066523976,359407,246304
970.106055294295,0.163491074447477,372563,255687
973.897812497622,0.163642117003608,384852,264029
977.685240436826,0.162901857254023,395436,271753
981.468339111907,0.162239974123489,405180,278874
985.247108522864,0.161465077118868,412755,284595
989.021548669698,0.161233679801122,418961,289028
994.047401121285,0.160775971065942,424849,293399
997.811739651831,0.160426302537572,428457,296129
1001.57174891825,0.160312400836354,431835,298542
1005.32742892055,0.159182621012436,432919,300071
1009.07877965873,0.158906887365882,434347,301252
1012.82580113278,0.159214153812828,435914,302125
1016.56849334271,0.15852789782608,436358,302911
1021.55201521176,0.158460399762886,436705,303199
1025.2846058054,0.157830234980077,436102,303220
1029.01286713492,0.157331961116843,435408,303085
1032.73679920031,0.156760482381605,434065,302548
1036.45640200158,0.156763069226649,433630,302243
1040.17167553873,0.156187642116533,433692,302687
1045.1186391774,0.156239345429608,434420,303159
1048.82381109826,0.155508021875408,434041,303405
1052.524653755,0.155663891738049,434307,303482
1056.22116714761,0.155553768027193,435320,304267
1059.9133512761,0.155417763063091,436644,305288
1063.60120614046,0.155435848755334,437559,305915
1067.28473174071,0.155287772642741,437916,306269
1072.18936479684,0.154724676291967,439809,307992
1075.86278878079,0.154602641539499,441764,309448
1079.53188350063,0.154379524461862,443997,311172
1083.19664895633,0.154320517434551,446576,313022
1086.85708514792,0.154272534259424,448461,314378
1090.51319207538,0.154383046327392,449641,315125
1094.16496973872,0.154053726963581,450850,316212
1099.02727221231,0.153888523913473,453291,318045
1102.66894825936,0.154162668427274,455387,319314
1106.30629504229,0.153780255478538,457380,320994
1109.93931256109,0.153417438992608,459518,322764
1113.56800081577,0.153651397539438,462059,324374
1117.19235980633,0.153885642094407,464382,325829
1120.81238953276,0.154072574531674,466561,327217
1125.63236142381,0.153958122924054,469815,329586
1129.24228953396,0.154018200456802,472613,331503
1132.84788837998,0.153670728277582,474859,333345
1136.44915796188,0.1541356497984,477983,335179
1140.04609827965,0.154094424475866,481116,337408
1143.6387093333,0.154770161743369,484313,339122
1148.42212299398,0.154587958014761,488451,342163
1152.00463243134,0.15512499530078,492490,344566
1155.58281260458,0.155286923573238,496926,347540
1159.1566635137,0.155415634600061,500812,350154
1162.72618515869,0.155886721165673,505598,353117
1166.29137753957,0.156110709284635,510443,356317
1169.85224065631,0.156125960599282,515614,359914
1174.59332373445,0.156866062094316,523363,364701
1178.14408523491,0.156796444527718,529555,369075
1181.69051747124,0.156177244512839,534811,373270
1185.23262044346,0.157091956470425,542549,377874
1188.77039415154,0.157597134910378,549524,382287
1192.30383859551,0.157418416179961,556682,387426
1195.83295377535,0.156895301921173,564650,393445
1200.53170627095,0.157530968940451,575407,400354
1204.0507198345,0.157256561569033,583133,405986
1207.56540413393,0.156560768928864,590950,412088
1211.07575916924,0.156773032924668,599503,417848
1214.58178494043,0.156368767513238,608162,424278
1218.08348144749,0.156070121263059,615426,429641
1222.74567571271,0.155505412801337,625633,437335
1226.23727060348,0.155511132731176,632910,442416
1229.72453623013,0.155060325770229,639476,447470
1233.20747259266,0.154616640903808,646478,452832
1236.68607969106,0.154368490482885,656222,459920
1240.16035752534,0.154160376450507,666799,467557
1243.63030609549,0.153686690537964,676718,475030
1248.25016977818,0.153936702108251,690190,484208
1251.71001673204,0.153562427212076,699314,491032
1255.16553442179,0.153195125183799,708288,497754
1258.61672284741,0.153477186760783,716927,503498
1262.06358200891,0.15346392506075,724863,509087
1265.50611190628,0.153308965366609,732141,514382
1268.94431253953,0.152800754702153,738450,519422
1273.52184563968,0.152922963214583,746283,524784
1276.94994465664,0.152898091732794,752753,529364
1280.37371440948,0.152940322526477,757825,532879
1283.79315489819,0.152838424087487,762251,536117
1287.20826612279,0.152874982407211,766443,539020
1290.61904808326,0.15279945440801,770697,542106
1295.16002295302,0.152718226941066,775316,545457
1298.56070329721,0.152593558044014,777728,547311
1301.95705437726,0.152567285625803,779872,548853
1305.3490761932,0.152489597038131,782311,550668
1308.73676874501,0.152461787921916,783994,551888
1312.1201320327,0.152535048887468,785037,552529
1315.49916605626,0.152689083984436,785830,552891
1319.99781034349,0.153015230834161,786537,552973
1323.36674275077,0.153058965682533,786565,552937
1326.73134589392,0.153300739576619,786502,552585
1330.09161977295,0.153815264742359,786377,551843
1333.44756438786,0.153897679864623,785644,551224
1336.79917973864,0.154483752474442,784851,549925
1340.1464658253,0.154671707817932,782822,548266
1344.60277952999,0.155565139657879,780355,545415
1347.93996400036,0.156281361879301,778086,542933
1351.27281920661,0.156868539778719,774967,540026
1354.60134514873,0.157714893151165,769971,535500
1357.92554182674,0.158068542295569,765648,532060
1361.24540924061,0.158817615843139,762145,528713
1364.56094739037,0.159314484096746,759284,526126
1368.97493051252,0.159808233682089,756332,523485
1372.28036704598,0.160319196647246,754772,521791
1375.58147431533,0.160975714753562,751646,518845
1378.87825232055,0.161789593337171,746796,514532
1382.17070106165,0.162290569403332,741199,510087
1385.45882053862,0.16343594672739,736743,505685
1389.83624543039,0.165422221846283,729938,498728
1393.11426329108,0.167137888054153,722712,491844
1396.38795188764,0.168381231556771,714317,484741
1399.65731122008,0.170648932090009,706686,477065
1402.92234128839,0.17283663569627,699729,469995
1406.18304209259,0.17523980244644,693767,463419
1409.43941363266,0.178554114120101,690023,457414
1413.77450794189,0.183272542105532,688037,451169
1417.02077786567,0.186170615341495,687057,447530
1420.26271852533,0.189439642717534,686941,444099
1423.50032992086,0.192248619694476,686580,441004
1426.73361205227,0.194957627564069,686593,438270
1429.96256491956,0.197183729312271,686380,435894
1433.18718852272,0.198602094160181,685600,433979
1437.47995224942,0.200657657643912,684394,431170
1440.69447423629,0.201616529799677,684615,430358
1443.90466695905,0.201929475980689,683230,429178
1447.11053041767,0.202703707528146,681848,427547
1450.31206461218,0.20316947170069,680137,426017
1453.50926954256,0.2032486085613,678043,424628
1457.76547503888,0.203152237352062,675094,422875
1460.95257835298,0.204046106048978,672460,420359
1464.13535240295,0.203767322701594,669162,418566
1467.31379718879,0.203534914612074,665244,416338
1470.48791271052,0.203168691359864,661246,414185
1473.65769896812,0.203394374040501,657229,411455
1476.8231559616,0.203382627422678,652635,408590
1481.03703087538,0.20217970216375,646365,405787
1484.19238625257,0.202279239369557,641324,402530
1487.34341236563,0.201863571167086,635964,399548
1490.49010921458,0.201728907722747,630955,396524
1493.63247679939,0.201273866493818,625009,393199
1496.77051512009,0.200754099769087,619073,389931
1499.90422417666,0.199446282557275,612512,386962
1504.0757685079,0.199057726494398,604155,382024
1507.19937594819,0.198534631936926,597228,378099
1510.31865412435,0.197926161270485,590073,374093
1513.43360303639,0.197082645808824,583078,370377
1516.5442226843,0.196311590047664,574851,365800
1519.65051306809,0.195718433891156,568241,362088
1522.75247418776,0.194933403707034,560272,357656
1526.88168793646,0.193983544521867,549882,351792
1529.97354743984,0.193627296033458,542100,347098
1533.0610776791,0.193051306853737,533731,342193
1536.14427865423,0.192667519769086,525234,337043
1539.22315036524,0.191765959051948,516915,332394
1542.29769281213,0.192112379531045,508520,326735
1546.39034833045,0.191465223383943,497116,319884
1549.45478916105,0.191365126962326,488192,314214
1552.51490072752,0.19094558613287,479494,308914
1555.57068302988,0.190296619928368,470449,303540
1558.6221360681,0.190471246528154,461605,297714
1561.66925984221,0.189904034360973,452489,292216
1564.71205435219,0.189580636237664,443416,286570
1568.76237928798,0.188678786674117,431184,279244
1571.79507218167,0.188290201145021,422048,273572
1574.82343581124,0.18931425377874,412812,266955
1577.84747017669,0.188650988668162,403639,261422
1580.86717527801,0.188473229020846,394408,255548
1583.88255111521,0.188424813181309,385202,249611
1586.89359768829,0.18754690768281,375815,244021
1590.90159204153,0.186435024577313,364038,236980
1593.90253699832,0.186217708430667,354619,230964
1596.89915269099,0.185888628223264,345972,225503
1599.89143911953,0.18486494659791,336909,220114
1602.87939628395,0.184528166318077,327898,214393
1605.86302418424,0.183862121829071,319021,208909
1609.83446030711,0.182629362798826,306891,201537
1612.80798659112,0.182459467122239,298495,196100
1615.777183611,0.181753682513477,289611,190573
1618.74205136676,0.181128328328082,280628,184928
1621.7025898584,0.180332182889893,272239,179729
1624.65879908592,0.179908368186048,263693,174257
1627.61067904931,0.179273900040095,255221,168905
1631.53978458964,0.1793987255419,244306,161635
1634.48156293674,0.179179775346422,236229,156370
1637.41901201972,0.177721854024625,228016,151441
1640.35213183857,0.177789183964189,219760,145935
1643.28092239331,0.177421436719151,212546,141264
1646.20538368392,0.177751799116285,204652,135914
1649.1255157104,0.178381164428226,196812,130518
1653.01229066819,0.178130570588072,186779,123936
1655.92232107839,0.177948488615805,179036,118848
1658.82802222446,0.178369930651897,171218,113548
1661.72939410641,0.17697775882548,162567,108157
1664.62643672424,0.178090473446229,153284,101720
1667.51915007795,0.176739481420367,143147,95289
1671.36936680536,0.174674442607002,128073,85661
1674.25197854278,0.171067479235834,115644,77993
1677.13026101607,0.167910958270221,102633,69723
1680.00421422524,0.163425826796901,89431,61385
1682.87383817029,0.165395823776264,77127,52700
1685.73913285121,0.164454300966089,65765,45034
1688.60009826801,0.162411289173259,55577,38237
1692.40798441288,0.165975588496391,44408,30303
1695.25884821339,0.160369325873611,37421,25867
1698.10538274978,0.170765309882031,32134,21687
1700.94758802205,0.170966123597804,27125,18298
