***Scan Config Information***,,,,,,,***Reference Scan Information***,,,,,,,,
Scan Config Name:,FolHerbario,,,,,,Scan Config Name:,Local New Reference,,,,,,,
Scan Config Type:,Slew,Num Section:,1,,,,Scan Config Type:,Slew,Num Section:,1,,,,,
Section Config Type:,Column,,,,,,Section Config Type:,Column,,,,,,,
Start Wavelength (nm):,900,,,,,,Start Wavelength (nm):,900,,,,,,,
End Wavelength (nm):,1700,,,,,,End Wavelength (nm):,1700,,,,,,,
Pattern Width (nm):,7.03,,,,,,Pattern Width (nm):,7.03,,,,,,,
Exposure (ms):,0.635,,,,,,Exposure (ms):,0.635,,,,,,,
Digital Resolution:,228,,,,,,Digital Resolution:,228,,,,,,,
Num Repeats:,20,,,,,,Num Repeats:,20,,,,,,,
PGA Gain:,64,(FixedPGA),,,,,PGA Gain:,64,(AutoPGA),,,,,,
System Temp (C):,40.5,,,,,,System Temp (C):,40.31,,,,,,,
Humidity (%):,43.84,,,,,,Humidity (%):,44.39,,,,,,,
Lamp ADC:,3066,3082,829,851,,,Lamp ADC:,3066,3081,829,851,,,,
Data Date-Time:,2025/04/03T11:00:51,,,,,,Data Date-Time:,2025/04/03T10:57:49,,,,,,,
Total Measurement Time in sec:,6.4730815,,,,,,,,,,,,,,
,,,,,,,,,,,,,,,
***General Information***,,,,,,,***Calibration Coefficients***,,,,,,,,
Model Name:,NIR-S-G1,,,,,,Shift Vector Coefficients:,0.392694521123758,0.0064508848494657,-3.36963000867986E-05,,,,,
Serial Number:,C23R003,(95UB125GC0VC23R003),,,,,Pixel to Wavelength Coefficients:,1737.96619343203,-0.927679554192883,-0.000240514673521399,,,,,
GUI Version:,3.13.1,Revision:,930,,,,Versions (Cal/Ref/Cfg):,1,3,1,,,,,
TIVA Version:,2.4.10,,,,,,***Lamp Usage ***,,,,,,,,
DLPC Version:,2.3.1,,,,,,Total Time(hh:mm:ss):,10min 10sec ,,,,,,,
UUID:,DE:67:0C:88:67:47:5F:21,,,,,,***Device/Error/Activation Status***,,,,,,,,
Main Board Version:,F,,,,,,Device Status:,0x00000001,Activation Status:,Activated,,,,,
Detector Board Version:,C,,,,,,Error status:,0x00000000,Error Code:,0x00000000000000000000000000000000,,,,,
,,,,,,,,,Error Details:,Not found,,,,,
***Scan Data***,,,,,,,,,,,,,,,
Wavelength (nm),Absorbance (AU),Reference Signal (unitless),Sample Signal (unitless)
901.114121469303,0.197802461826744,103788,65818
904.983805426851,0.196296301722714,112356,71499
908.849160120276,0.194731222406229,119787,76503
913.996231967317,0.194772097269214,131917,84242
917.851485044454,0.192588044364837,142919,91728
921.702408857468,0.19313480007833,156662,100422
925.549003406358,0.191884689888739,173091,111273
929.391268691125,0.192718897589225,191612,122943
933.229204711769,0.190573716387035,211268,136226
937.062811468289,0.189721917055256,231307,149440
942.16755273279,0.18878595619278,256721,166217
945.991057873023,0.187966358542285,274534,178086
949.810233749132,0.187354612476023,290941,188995
953.625080361117,0.186714708030096,307143,199814
957.435597708979,0.185849399170053,322773,210401
961.241785792718,0.185029332282308,338286,220930
966.309968826844,0.184746518415326,357943,233920
970.106055294295,0.184278273550468,371545,243071
973.897812497622,0.183875129494624,383683,251245
977.685240436826,0.183463447508006,394669,258684
981.468339111907,0.182626348841087,404387,265565
985.247108522864,0.182492468631711,412542,271004
989.021548669698,0.182637889094874,418919,275101
994.047401121285,0.181212659199626,424756,279851
997.811739651831,0.181282845859887,428641,282365
1001.57174891825,0.18045216358741,431834,285013
1005.32742892055,0.180122178638548,433291,286192
1009.07877965873,0.179820642440324,434889,287447
1012.82580113278,0.179002896449528,436330,288943
1016.56849334271,0.179121369701788,436946,289272
1021.55201521176,0.178239149719067,436709,289703
1025.2846058054,0.177736762440062,436439,289859
1029.01286713492,0.177630776364988,435625,289389
1032.73679920031,0.177127086855856,434675,289093
1036.45640200158,0.176916606965896,433734,288607
1040.17167553873,0.176718772078875,434253,289084
1045.1186391774,0.176162652733623,434977,289937
1048.82381109826,0.175820788173278,434206,289651
1052.524653755,0.175253788086581,434409,290165
1056.22116714761,0.175336918811306,435735,290995
1059.9133512761,0.174853708649475,436637,291922
1063.60120614046,0.174523546760659,437462,292696
1067.28473174071,0.174438939662558,437976,293097
1072.18936479684,0.174148689968749,439889,294574
1075.86278878079,0.173678940286883,441560,296013
1079.53188350063,0.172934388622576,443770,298005
1083.19664895633,0.173109915590896,446184,299505
1086.85708514792,0.172893196623243,448722,301359
1090.51319207538,0.172834983746021,449573,301971
1094.16496973872,0.172721220211386,450771,302855
1099.02727221231,0.171961950346041,453031,304906
1102.66894825936,0.172413671520935,455555,306286
1106.30629504229,0.171811330219445,457459,307993
1109.93931256109,0.171914190534074,459674,309411
1113.56800081577,0.171654764976083,461980,311149
1117.19235980633,0.171486722376096,464173,312747
1120.81238953276,0.171466366956583,466229,314147
1125.63236142381,0.171387369770964,469744,316573
1129.24228953396,0.170982748428971,472396,318657
1132.84788837998,0.171481172742507,474856,319949
1136.44915796188,0.171949631181265,477924,321669
1140.04609827965,0.171733095424655,480935,323857
1143.6387093333,0.172330042475731,483897,325404
1148.42212299398,0.172320098663276,488234,328328
1152.00463243134,0.173017278701281,492383,330587
1155.58281260458,0.173308417081448,496554,333164
1159.1566635137,0.173802523935761,500954,335734
1162.72618515869,0.174118691997438,505455,338504
1166.29137753957,0.174214366261476,510268,341652
1169.85224065631,0.17441666255287,515486,344985
1174.59332373445,0.175205145305078,523150,349479
1178.14408523491,0.17540549831558,529340,353451
1181.69051747124,0.176086797954543,535430,356957
1185.23262044346,0.175709658462389,542060,361691
1188.77039415154,0.176523910251053,548849,365535
1192.30383859551,0.176500571453137,556244,370480
1195.83295377535,0.176618130438895,564156,375648
1200.53170627095,0.176290983727262,574191,382618
1204.0507198345,0.176215853830288,582188,388014
1207.56540413393,0.175888962750386,590239,393676
1211.07575916924,0.175852367911979,598853,399455
1214.58178494043,0.175324813090643,606896,405312
1218.08348144749,0.174646588749532,614493,411027
1222.74567571271,0.173955964044715,624695,418516
1226.23727060348,0.17365720536428,631989,423694
1229.72453623013,0.173157835755356,638453,428520
1233.20747259266,0.172750044227688,645725,433808
1236.68607969106,0.172128676219725,655034,440692
1240.16035752534,0.171797470404346,665469,448054
1243.63030609549,0.171269589164699,675420,455307
1248.25016977818,0.171199016902446,689015,464547
1251.71001673204,0.1708311860421,698171,471119
1255.16553442179,0.170634841056438,706906,477229
1258.61672284741,0.170571055653663,715533,483124
1262.06358200891,0.169943158738165,723003,488874
1265.50611190628,0.16995361694703,730532,493953
1268.94431253953,0.169789291650936,736833,498402
1273.52184563968,0.169744340342368,745128,504065
1276.94994465664,0.169471117132385,750901,508290
1280.37371440948,0.169145381406455,755859,512030
1283.79315489819,0.169125108716373,760692,515328
1287.20826612279,0.169194850980322,764948,518128
1290.61904808326,0.1689002671206,768910,521165
1295.16002295302,0.16859943668244,773439,524598
1298.56070329721,0.168901264257479,776206,526109
1301.95705437726,0.168860912040649,778450,527679
1305.3490761932,0.168446714061377,780632,529663
1308.73676874501,0.16878781711955,782682,530637
1312.1201320327,0.168569855989059,783737,531619
1315.49916605626,0.168670789278953,784161,531783
1319.99781034349,0.168802488439824,785157,532297
1323.36674275077,0.168815328187406,785400,532446
1326.73134589392,0.168987897406507,784781,531815
1330.09161977295,0.169508926512936,784615,531065
1333.44756438786,0.169959517960877,784338,530327
1336.79917973864,0.170468291103186,783522,529155
1340.1464658253,0.170623807996941,781760,527776
1344.60277952999,0.171725873943994,779125,524664
1347.93996400036,0.172385294998444,776680,522224
1351.27281920661,0.173159391029015,773800,519361
1354.60134514873,0.173930738369411,768571,514936
1357.92554182674,0.174603689854565,764326,511299
1361.24540924061,0.175149078804825,761118,508514
1364.56094739037,0.175571992265565,758126,506022
1368.97493051252,0.17663774482165,755444,502996
1372.28036704598,0.177359257876307,753580,500922
1375.58147431533,0.177973282448633,750669,498282
1378.87825232055,0.178384072715722,745705,494519
1382.17070106165,0.179426914665582,740079,489611
1385.45882053862,0.180735631002757,735822,485330
1389.83624543039,0.182204113481975,728709,479016
1393.11426329108,0.184332741195472,721521,471972
1396.38795188764,0.18601922823052,713297,464784
1399.65731122008,0.188146136112198,705681,457575
1402.92234128839,0.191178272008792,698569,449812
1406.18304209259,0.194261514779455,692757,442914
1409.43941363266,0.198055497732958,689165,436785
1413.77450794189,0.203120233144062,686956,430337
1417.02077786567,0.206855884479567,686450,426337
1420.26271852533,0.210608116451152,685561,422122
1423.50032992086,0.214209731800327,685504,418601
1426.73361205227,0.217305594219192,685818,415818
1429.96256491956,0.220686803961668,685688,412515
1433.18718852272,0.222944456771495,685113,410032
1437.47995224942,0.225249172580763,683447,406870
1440.69447423629,0.226687255556319,683651,405646
1443.90466695905,0.227640588678811,682510,404081
1447.11053041767,0.228295607736674,681018,402590
1450.31206461218,0.228604083005493,679198,401229
1453.50926954256,0.229227760030435,677360,399569
1457.76547503888,0.229883133607752,674658,397375
1460.95257835298,0.229805418350349,671896,395819
1464.13535240295,0.229744497105896,668263,393734
1467.31379718879,0.230004228005501,664930,391536
1470.48791271052,0.230003782058019,660558,388962
1473.65769896812,0.229345143612132,656286,387033
1476.8231559616,0.229030609950469,651856,384699
1481.03703087538,0.228697089237452,646183,381644
1484.19238625257,0.228287314938354,640641,378728
1487.34341236563,0.227914273276445,635504,376014
1490.49010921458,0.227263374257568,630362,373531
1493.63247679939,0.226306583310223,624361,370791
1496.77051512009,0.226062305098525,618426,367473
1499.90422417666,0.225151152282352,612127,364494
1504.0757685079,0.224436567279069,603663,360046
1507.19937594819,0.223931106070744,596865,356406
1510.31865412435,0.223393254811246,589665,352543
1513.43360303639,0.221962363225404,582379,349336
1516.5442226843,0.221795868867394,574855,344955
1519.65051306809,0.220116383352411,567525,341876
1522.75247418776,0.21946576369769,559543,337573
1526.88168793646,0.218611734941949,549188,331978
1529.97354743984,0.218463567390676,541759,327599
1533.0610776791,0.217777870392978,533433,323074
1536.14427865423,0.217309169954943,524827,318205
1539.22315036524,0.217258997281822,516895,313432
1542.29769281213,0.216379213096276,508191,308779
1546.39034833045,0.21627700577454,496848,301958
1549.45478916105,0.215910477093442,488041,296856
1552.51490072752,0.21564799605926,478900,291472
1555.57068302988,0.215594856954913,470642,286481
1558.6221360681,0.215081884912471,461283,281116
1561.66925984221,0.214892925921415,452391,275817
1564.71205435219,0.214344579769044,443166,270534
1568.76237928798,0.214846909711567,431223,262939
1571.79507218167,0.214803832889745,422389,257578
1574.82343581124,0.214631595199922,412724,251784
1577.84747017669,0.213932572032972,403429,246510
1580.86717527801,0.213791819596786,394323,241024
1583.88255111521,0.213286104077563,385030,235618
1586.89359768829,0.213315866099004,376189,230192
1590.90159204153,0.212595234242364,364404,223351
1593.90253699832,0.211700878540915,354758,217887
1596.89915269099,0.211527769029984,346160,212691
1599.89143911953,0.210963423677975,337429,207596
1602.87939628395,0.210726256273948,328383,202141
1605.86302418424,0.209792439271315,319673,197203
1609.83446030711,0.20940286120558,307578,189912
1612.80798659112,0.207966895523109,299000,185227
1615.777183611,0.207852766375591,290294,179881
1618.74205136676,0.207763446556078,281891,174710
1621.7025898584,0.207129467845619,273139,169533
1624.65879908592,0.206441392441301,264379,164356
1627.61067904931,0.207470999173203,256456,159053
1631.53978458964,0.206060425975914,245308,152634
1634.48156293674,0.206315885021012,237177,147488
1637.41901201972,0.205801878735542,228965,142550
1640.35213183857,0.205264819790563,221301,137949
1643.28092239331,0.20546368048609,213583,133077
1646.20538368392,0.20664783786918,206179,128114
1649.1255157104,0.20505419924385,198157,123582
1653.01229066819,0.206575704410334,188630,117229
1655.92232107839,0.207564804439653,181606,112607
1658.82802222446,0.206937023739306,173939,108009
1661.72939410641,0.208461531152215,166362,102942
1664.62643672424,0.207901367687857,158239,98042
1667.51915007795,0.210325380245707,149716,92245
1671.36936680536,0.210936183398906,137667,84702
1674.25197854278,0.210388630672469,127491,78540
1677.13026101607,0.21037515002392,116407,71714
1680.00421422524,0.212542801579782,104668,64161
1682.87383817029,0.211837292966781,92410,56739
1685.73913285121,0.210475035778504,80033,49294
1688.60009826801,0.212058554674204,68878,42269
1692.40798441288,0.211282613215775,55168,33916
1695.25884821339,0.214197525394848,46867,28620
1698.10538274978,0.214249577729076,39524,24133
1700.94758802205,0.219293650620646,33499,20218
