***Scan Config Information***,,,,,,,***Reference Scan Information***,,,,,,,,
Scan Config Name:,FolHerbario,,,,,,Scan Config Name:,Local New Reference,,,,,,,
Scan Config Type:,Slew,Num Section:,1,,,,Scan Config Type:,Slew,Num Section:,1,,,,,
Section Config Type:,Column,,,,,,Section Config Type:,Column,,,,,,,
Start Wavelength (nm):,900,,,,,,Start Wavelength (nm):,900,,,,,,,
End Wavelength (nm):,1700,,,,,,End Wavelength (nm):,1700,,,,,,,
Pattern Width (nm):,7.03,,,,,,Pattern Width (nm):,7.03,,,,,,,
Exposure (ms):,0.635,,,,,,Exposure (ms):,0.635,,,,,,,
Digital Resolution:,228,,,,,,Digital Resolution:,228,,,,,,,
Num Repeats:,20,,,,,,Num Repeats:,20,,,,,,,
PGA Gain:,64,(FixedPGA),,,,,PGA Gain:,64,(AutoPGA),,,,,,
System Temp (C):,37.2,,,,,,System Temp (C):,36.71,,,,,,,
Humidity (%):,53.24,,,,,,Humidity (%):,54.55,,,,,,,
Lamp ADC:,3067,3081,830,851,,,Lamp ADC:,3066,3081,829,851,,,,
Data Date-Time:,2025/04/03T10:11:12,,,,,,Data Date-Time:,2025/04/03T10:09:29,,,,,,,
Total Measurement Time in sec:,6.4794516,,,,,,,,,,,,,,
,,,,,,,,,,,,,,,
***General Information***,,,,,,,***Calibration Coefficients***,,,,,,,,
Model Name:,NIR-S-G1,,,,,,Shift Vector Coefficients:,0.392694521123758,0.0064508848494657,-3.36963000867986E-05,,,,,
Serial Number:,C23R003,(95UB125GC0VC23R003),,,,,Pixel to Wavelength Coefficients:,1737.96619343203,-0.927679554192883,-0.000240514673521399,,,,,
GUI Version:,3.13.1,Revision:,930,,,,Versions (Cal/Ref/Cfg):,1,3,1,,,,,
TIVA Version:,2.4.10,,,,,,***Lamp Usage ***,,,,,,,,
DLPC Version:,2.3.1,,,,,,Total Time(hh:mm:ss):,4min 53sec ,,,,,,,
UUID:,DE:67:0C:88:67:47:5F:21,,,,,,***Device/Error/Activation Status***,,,,,,,,
Main Board Version:,F,,,,,,Device Status:,0x00000001,Activation Status:,Activated,,,,,
Detector Board Version:,C,,,,,,Error status:,0x00000000,Error Code:,0x00000000000000000000000000000000,,,,,
,,,,,,,,,Error Details:,Not found,,,,,
***Scan Data***,,,,,,,,,,,,,,,
Wavelength (nm),Absorbance (AU),Reference Signal (unitless),Sample Signal (unitless)
901.114121469303,0.233412844290709,104316,60945
904.983805426851,0.231899860664952,113152,66338
908.849160120276,0.229499935299964,121188,71443
913.996231967317,0.227877862193955,133100,78759
917.851485044454,0.225961075750024,144697,86000
921.702408857468,0.223778056443813,158675,94783
925.549003406358,0.223228418817402,175612,105033
929.391268691125,0.220647009108688,194639,117107
933.229204711769,0.220580293564214,214815,129266
937.062811468289,0.218549748070216,234793,141950
942.16755273279,0.216733479426553,259988,157841
945.991057873023,0.215620735586545,277096,168659
949.810233749132,0.214590130720701,293441,179032
953.625080361117,0.213393540914819,309569,189393
957.435597708979,0.212225600343999,325427,199631
961.241785792718,0.21132186725544,340735,209457
966.309968826844,0.210026028239408,359825,221853
970.106055294295,0.20861381038351,373108,230792
973.897812497622,0.20837181665676,385427,238545
977.685240436826,0.206949481721625,396490,246197
981.468339111907,0.20615055896761,405903,252506
985.247108522864,0.205192789237142,414076,258159
989.021548669698,0.204632241811501,420249,262346
994.047401121285,0.203240957285487,426143,266879
997.811739651831,0.202672136660197,429784,269512
1001.57174891825,0.201094241276525,432992,272512
1005.32742892055,0.200198266290776,434264,273877
1009.07877965873,0.200097313411633,436040,275061
1012.82580113278,0.199339973785681,437203,276276
1016.56849334271,0.198123984240109,437950,277524
1021.55201521176,0.197431128000376,437630,277764
1025.2846058054,0.196746962999347,437509,278125
1029.01286713492,0.195856656265758,436635,278139
1032.73679920031,0.195492744032766,435725,277792
1036.45640200158,0.193999771217113,434547,277995
1040.17167553873,0.194155547970229,435405,278444
1045.1186391774,0.192991653615529,435715,279390
1048.82381109826,0.192775304566277,435445,279356
1052.524653755,0.191628714744354,435424,280081
1056.22116714761,0.19135948362485,436930,281224
1059.9133512761,0.191171135524887,438087,282091
1063.60120614046,0.190395586892165,438482,282850
1067.28473174071,0.189824969804483,439456,283851
1072.18936479684,0.189192383672652,441143,285356
1075.86278878079,0.188147445047104,442663,287029
1079.53188350063,0.187890821268544,445162,288820
1083.19664895633,0.187576602955141,447674,290660
1086.85708514792,0.186969011578145,449509,292260
1090.51319207538,0.186793640752555,450785,293208
1094.16496973872,0.187130932757904,452600,294160
1099.02727221231,0.186314244502994,454729,296100
1102.66894825936,0.185814640132137,456998,297920
1106.30629504229,0.18510147809065,458821,299600
1109.93931256109,0.184969419381367,460831,301004
1113.56800081577,0.18455017394304,463375,302958
1117.19235980633,0.1848058418965,465668,304278
1120.81238953276,0.184393253846265,467929,306046
1125.63236142381,0.184075910603362,471144,308374
1129.24228953396,0.183833830067032,473827,310303
1132.84788837998,0.183794046777497,476480,312069
1136.44915796188,0.184057898949748,479434,313813
1140.04609827965,0.184033660940402,482484,315827
1143.6387093333,0.184228523419954,485554,317694
1148.42212299398,0.184075230468573,490041,320743
1152.00463243134,0.184295443859709,494108,323241
1155.58281260458,0.184459633894892,498338,325885
1159.1566635137,0.185110300404039,502750,328278
1162.72618515869,0.18512885098501,507167,331148
1166.29137753957,0.184986878741844,512144,334507
1169.85224065631,0.185072545545698,517349,337840
1174.59332373445,0.185041420436206,524743,342693
1178.14408523491,0.185582025572596,531244,346507
1181.69051747124,0.185918931949996,537387,350242
1185.23262044346,0.185847577712692,544199,354740
1188.77039415154,0.185798071360789,550676,359003
1192.30383859551,0.186216658157953,558388,363680
1195.83295377535,0.186249630309179,566610,369007
1200.53170627095,0.186008326816686,576892,375912
1204.0507198345,0.185942698823111,584615,381002
1207.56540413393,0.185679112195964,592903,386638
1211.07575916924,0.18570209985641,601438,392183
1214.58178494043,0.185215639378683,609389,397813
1218.08348144749,0.184834873712867,616985,403125
1222.74567571271,0.185183310000383,627703,409799
1226.23727060348,0.184845762980357,634816,414765
1229.72453623013,0.183850286865425,640729,419589
1233.20747259266,0.18383199046403,648485,424686
1236.68607969106,0.183586232808972,657812,431038
1240.16035752534,0.183572711760153,668915,438327
1243.63030609549,0.182857526930899,678400,445275
1248.25016977818,0.18268514409028,691717,454196
1251.71001673204,0.182718998380753,701185,460377
1255.16553442179,0.182489923464272,710063,466452
1258.61672284741,0.182397307495176,718646,472191
1262.06358200891,0.182283179624853,726392,477406
1265.50611190628,0.182433677002443,734213,482379
1268.94431253953,0.182186613527905,740437,486745
1273.52184563968,0.182256027538147,748441,491928
1276.94994465664,0.182064571755847,754544,496158
1280.37371440948,0.181744565605855,759538,499810
1283.79315489819,0.181843838026406,764109,502703
1287.20826612279,0.181858306151631,768383,505498
1290.61904808326,0.181751826241156,772509,508337
1295.16002295302,0.181311353803324,777091,511871
1298.56070329721,0.181219491257676,779768,513743
1301.95705437726,0.181624153435294,782122,514814
1305.3490761932,0.181324837884907,784451,516703
1308.73676874501,0.181262650516906,786013,517806
1312.1201320327,0.181406833362637,787302,518483
1315.49916605626,0.181415721175575,787432,518558
1319.99781034349,0.181555361082582,788387,519020
1323.36674275077,0.181655825757954,788656,519077
1326.73134589392,0.182066381671342,788348,518384
1330.09161977295,0.182343106718365,788292,518017
1333.44756438786,0.182558063523639,787717,517383
1336.79917973864,0.183049096459373,786901,516263
1340.1464658253,0.183505539181251,785072,514522
1344.60277952999,0.184007027603253,782626,512327
1347.93996400036,0.184644542063272,780023,509874
1351.27281920661,0.185148318635771,776551,507016
1354.60134514873,0.185732660767208,771491,503035
1357.92554182674,0.186392950424265,767083,499401
1361.24540924061,0.187114590686725,763863,496479
1364.56094739037,0.18746063913173,760664,494006
1368.97493051252,0.188198860412976,757863,491351
1372.28036704598,0.188704788518659,756410,489838
1375.58147431533,0.189134980578666,753150,487244
1378.87825232055,0.189627522916975,748118,483440
1382.17070106165,0.190158840500735,742655,479323
1385.45882053862,0.191345007485924,738293,475208
1389.83624543039,0.192824175891275,731516,469245
1393.11426329108,0.19421367341525,724203,463070
1396.38795188764,0.196041318796517,715907,455843
1399.65731122008,0.198351360743773,708455,448705
1402.92234128839,0.200217878339371,701220,442218
1406.18304209259,0.202927465361998,695435,435842
1409.43941363266,0.205877418911133,691450,430411
1413.77450794189,0.21007876686867,689430,425022
1417.02077786567,0.213370353109218,688917,421499
1420.26271852533,0.216399507866168,688505,418319
1423.50032992086,0.219363897733513,688221,415302
1426.73361205227,0.221702667067045,688615,413308
1429.96256491956,0.223947628087548,688074,410854
1433.18718852272,0.225954993978157,687890,408850
1437.47995224942,0.227493150474108,686486,406573
1440.69447423629,0.228492277676947,686258,405504
1443.90466695905,0.229357885741077,685031,403973
1447.11053041767,0.229845953960306,683630,402694
1450.31206461218,0.230175583092699,682039,401452
1453.50926954256,0.230753036970047,680279,399884
1457.76547503888,0.231066893741811,676971,397652
1460.95257835298,0.231500776778591,674478,395792
1464.13535240295,0.23195246384187,671229,393476
1467.31379718879,0.231893842733696,667374,391269
1470.48791271052,0.232209006935371,663412,388664
1473.65769896812,0.231914424125045,659056,386374
1476.8231559616,0.231498805614862,654455,384044
1481.03703087538,0.230900687182622,648175,380883
1484.19238625257,0.230920896905084,642715,377657
1487.34341236563,0.230537771087151,637945,375185
1490.49010921458,0.230207744547171,632421,372219
1493.63247679939,0.229841852813442,626821,369234
1496.77051512009,0.229267374425445,620596,366051
1499.90422417666,0.228543227744529,614349,362971
1504.0757685079,0.228370854356534,606018,358191
1507.19937594819,0.227593618703258,598993,354673
1510.31865412435,0.226530975861383,591577,351140
1513.43360303639,0.226510084842581,584847,347162
1516.5442226843,0.225916970041483,576882,342902
1519.65051306809,0.22494410105183,569701,339393
1522.75247418776,0.224425908668445,561757,335060
1526.88168793646,0.223752159334865,551316,329343
1529.97354743984,0.223263148527839,543753,325191
1533.0610776791,0.223146720517108,535147,320130
1536.14427865423,0.222781462291566,526877,315448
1539.22315036524,0.222662219542213,518704,310640
1542.29769281213,0.222015688336456,509996,305880
1546.39034833045,0.221880702898163,498375,299003
1549.45478916105,0.221747331688111,489544,293795
1552.51490072752,0.22205110546196,480859,288381
1555.57068302988,0.221283969773239,471836,283470
1558.6221360681,0.22186844251296,463131,277866
1561.66925984221,0.221126206310672,453826,272749
1564.71205435219,0.221105018490048,444776,267323
1568.76237928798,0.221209810470995,432658,259977
1571.79507218167,0.220806616367218,423451,254681
1574.82343581124,0.220970400730386,414090,248957
1577.84747017669,0.220887411132301,404931,243497
1580.86717527801,0.220664078748099,395749,238098
1583.88255111521,0.220061781777598,386196,232673
1586.89359768829,0.220222782445009,377416,227299
1590.90159204153,0.220264528073907,365124,219875
1593.90253699832,0.219160379746888,355751,214776
1596.89915269099,0.218050535997399,346954,210001
1599.89143911953,0.218633118178924,338458,204584
1602.87939628395,0.217980473680472,329279,199335
1605.86302418424,0.217588028976236,320487,194188
1609.83446030711,0.216825620602838,308109,187016
1612.80798659112,0.21619388621025,299457,182029
1615.777183611,0.215877219449087,290937,176979
1618.74205136676,0.215221880870065,281999,171801
1621.7025898584,0.215318688672048,273362,166502
1624.65879908592,0.214790159401436,264660,161398
1627.61067904931,0.215442652502713,256574,156232
1631.53978458964,0.214092423454244,245375,149878
1634.48156293674,0.213804544650611,237050,144889
1637.41901201972,0.214909043678085,229436,139879
1640.35213183857,0.213687782648022,221168,135218
1643.28092239331,0.214351126470974,213394,130266
1646.20538368392,0.213222395042025,205651,125866
1649.1255157104,0.213520577655394,197851,121009
1653.01229066819,0.215265817803811,188107,114588
1655.92232107839,0.215637943475371,180556,109894
1658.82802222446,0.215823688235642,172824,105143
1661.72939410641,0.215551372129404,164614,100211
1664.62643672424,0.215578723536508,156008,94966
1667.51915007795,0.215623154264872,146117,88936
1671.36936680536,0.215820099252382,132539,80635
1674.25197854278,0.213634346540274,120594,73738
1677.13026101607,0.214419406680214,108285,66092
1680.00421422524,0.212514345674961,95324,58437
1682.87383817029,0.213566127712565,82786,50628
1685.73913285121,0.211935205848473,71043,43610
1688.60009826801,0.216679453750806,60298,36612
1692.40798441288,0.217839583225375,48378,29296
1695.25884821339,0.214812416276468,40897,24939
1698.10538274978,0.215897344340868,34208,20808
1700.94758802205,0.217940544752158,29168,17659
