***Scan Config Information***,,,,,,,***Reference Scan Information***,,,,,,,,
Scan Config Name:,FolHerbario,,,,,,Scan Config Name:,Local New Reference,,,,,,,
Scan Config Type:,Slew,Num Section:,1,,,,Scan Config Type:,Slew,Num Section:,1,,,,,
Section Config Type:,Column,,,,,,Section Config Type:,Column,,,,,,,
Start Wavelength (nm):,900,,,,,,Start Wavelength (nm):,900,,,,,,,
End Wavelength (nm):,1700,,,,,,End Wavelength (nm):,1700,,,,,,,
Pattern Width (nm):,7.03,,,,,,Pattern Width (nm):,7.03,,,,,,,
Exposure (ms):,0.635,,,,,,Exposure (ms):,0.635,,,,,,,
Digital Resolution:,228,,,,,,Digital Resolution:,228,,,,,,,
Num Repeats:,20,,,,,,Num Repeats:,20,,,,,,,
PGA Gain:,64,(FixedPGA),,,,,PGA Gain:,64,(AutoPGA),,,,,,
System Temp (C):,40.3,,,,,,System Temp (C):,40.15,,,,,,,
Humidity (%):,43.38,,,,,,Humidity (%):,42.15,,,,,,,
Lamp ADC:,3068,3082,845,842,,,Lamp ADC:,3068,3082,845,842,,,,
Data Date-Time:,2025/04/03T11:48:00,,,,,,Data Date-Time:,2025/04/03T11:42:21,,,,,,,
Total Measurement Time in sec:,6.479593,,,,,,,,,,,,,,
,,,,,,,,,,,,,,,
***General Information***,,,,,,,***Calibration Coefficients***,,,,,,,,
Model Name:,NIR-S-G1,,,,,,Shift Vector Coefficients:,-4.78706677830951,0.0420606707536571,-9.21439965724389E-05,,,,,
Serial Number:,C23R001,(95UB125GC0VC23R001),,,,,Pixel to Wavelength Coefficients:,1777.69850932213,-0.910890781979712,-0.000240535926235214,,,,,
GUI Version:,3.13.1,Revision:,930,,,,Versions (Cal/Ref/Cfg):,1,3,1,,,,,
TIVA Version:,2.4.10,,,,,,***Lamp Usage ***,,,,,,,,
DLPC Version:,2.3.1,,,,,,Total Time(hh:mm:ss):,11min 4sec ,,,,,,,
UUID:,DE:67:0C:88:67:3E:75:21,,,,,,***Device/Error/Activation Status***,,,,,,,,
Main Board Version:,F,,,,,,Device Status:,0x00000001,Activation Status:,Activated,,,,,
Detector Board Version:,C,,,,,,Error status:,0x00000000,Error Code:,0x00000000000000000000000000000000,,,,,
,,,,,,,,,Error Details:,Not found,,,,,
***Scan Data***,,,,,,,,,,,,,,,
Wavelength (nm),Absorbance (AU),Reference Signal (unitless),Sample Signal (unitless)
900.868887283122,0.2849588196281,105495,54736
904.747472781646,0.279024721172087,113767,59840
909.912185107076,0.275993691928866,125189,66309
913.780668096698,0.27123432623865,135154,72376
917.644821439648,0.266108263361066,147937,80162
921.504645135925,0.264373378388703,163337,88861
925.36013918553,0.260222080365789,181943,99934
929.211303588463,0.256890184500053,202748,112219
933.058138344724,0.254299936476293,225163,125371
938.180516347137,0.249398982393678,252788,142350
942.017248594496,0.247080461250295,271727,153834
945.849651195182,0.243718716972058,288940,164850
949.677724149196,0.240188269604421,304932,175394
953.501467456539,0.237682009767684,320672,185515
957.320881117208,0.234656864950466,335924,195697
961.135965131206,0.231950749273061,351263,205912
966.216008810601,0.228602171025303,371267,219323
970.020990315697,0.22650930375411,386049,229157
973.821642174121,0.223987193314576,400189,238934
977.617964385872,0.221753626094265,413901,248395
981.409956950951,0.219071393448557,426565,257581
985.197619869358,0.217412963568838,438660,265898
988.980953141092,0.215414160275833,448576,273163
994.01866249747,0.212826929961115,460742,282248
997.791893260303,0.21113720277112,468358,288032
1001.56079437646,0.209030743820324,474699,293351
1005.32536584595,0.207337586628914,480178,297896
1009.08560766877,0.20588979567629,484945,301858
1012.84151984491,0.204633344093066,488928,305219
1016.59310237438,0.202797737258732,490289,307365
1021.58847740774,0.20109004872614,492353,309875
1025.32995742831,0.198691484602917,493432,312274
1029.06710780221,0.19739359015978,493598,313314
1032.79992852944,0.196773900046281,492331,312956
1036.52841960999,0.195227895396473,490906,313163
1040.25258104387,0.193521654449029,489715,313633
1043.97241283108,0.192362173819932,488945,313977
1047.68791497161,0.191740206422735,489043,314490
1052.63518281973,0.190549404604403,487966,314659
1056.34058245136,0.189528245517795,488084,315476
1060.04165243632,0.188558626211896,490052,317456
1063.73839277461,0.187957343371029,493066,319851
1067.43080346623,0.186929094310395,494396,321474
1071.11888451118,0.186349350525078,492517,320680
1074.80263590945,0.185145997290055,488333,318838
1079.70756943455,0.183645390538092,483106,316517
1083.38121832392,0.183081380739264,482322,316414
1087.05053756662,0.182247795960831,482774,317319
1090.71552716264,0.181529147485747,482957,317965
1094.376187112,0.180238320927112,485031,320281
1098.03251741468,0.179983436108044,487221,321916
1101.68451807069,0.179482421900155,489391,323723
1106.54711727277,0.179320817726749,492863,326141
1110.18901541988,0.178360773220782,495288,328471
1113.82658392031,0.178286123195219,497906,330264
1117.45982277408,0.178248409640786,500635,332103
1121.08873198117,0.177385099992881,502564,334046
1124.71331154159,0.177457190889338,505058,335648
1128.33356145534,0.177386640142494,508179,337777
1133.1538263344,0.177457105168965,511459,339902
1136.76397373924,0.177171894523352,514051,341849
1140.36979149742,0.178034425647648,516765,342972
1143.97127960892,0.177981787827717,519610,344902
1147.56843807374,0.178165230007443,522553,346709
1151.1612668919,0.178059161722978,524993,348413
1154.74976606338,0.178779212737524,528190,349954
1159.52769661943,0.17887943182221,532234,352552
1163.10609328201,0.179244921628473,535225,354235
1166.68016029792,0.179791291336175,538637,356045
1170.24989766716,0.179960054796841,542415,358403
1173.81530538972,0.180154567872479,546793,361134
1177.37638346562,0.180381193232825,551005,363726
1180.93313189484,0.181179347275867,555532,366041
1185.66872812787,0.181122897261049,562466,370658
1189.21537404818,0.181525469250603,568205,374093
1192.75769032183,0.181397940710543,573623,377771
1196.29567694881,0.181652388900256,579722,381564
1199.82933392911,0.18188373618618,586756,385988
1203.35866126274,0.18141079701995,593520,390863
1206.8836589497,0.181397841610186,599983,395131
1211.57692085971,0.18141650542797,609832,401600
1215.09181603776,0.180368399022391,617236,407458
1218.60238156915,0.179365872288805,624757,413376
1222.10861745386,0.178789653962421,632384,418978
1225.6105236919,0.177713426037405,639583,424799
1229.10810028326,0.176705817792062,647067,430768
1232.60134722796,0.175975066257828,654011,436124
1236.09026452598,0.175107602955493,661075,441716
1240.73541925074,0.174220260036941,673665,451049
1244.21423403986,0.173899872412425,685169,459090
1247.68871918231,0.17312573711646,696831,467737
1251.15887467809,0.172956233743004,707889,475345
1254.62470052719,0.172503831988604,719266,483488
1258.08619672962,0.171836495948601,729703,491258
1261.54336328538,0.171455711541288,739872,498541
1266.14618368713,0.171252337205147,752566,507332
1269.59324773399,0.170784787919344,761456,513878
1273.03598213417,0.170959016535838,770850,520009
1276.47438688769,0.170261693083056,778588,526073
1279.90846199453,0.170015419043491,785927,531333
1283.3382074547,0.169782294957458,792492,536059
1286.76362326819,0.169523488529231,799165,540895
1291.32410934692,0.169521349335728,806841,546093
1294.73942265151,0.169124459362216,811545,549779
1298.15040630944,0.169059252770919,816242,553044
1301.55706032069,0.168689463911602,820480,556389
1304.95938468526,0.168630402189185,824000,558852
1308.35737940317,0.168741721544594,826686,560530
1311.7510444744,0.168855534001826,829145,562050
1316.26919623011,0.169153463166823,831794,563459
1319.65275879245,0.168907138980167,832153,564022
1323.03199170811,0.169555685265829,833206,563893
1326.40689497709,0.16961428283924,833713,564160
1329.77746859941,0.170345379761059,833741,563230
1333.14371257505,0.170962560221502,832669,561707
1336.50562690402,0.171716420606342,831955,560252
1340.98144433671,0.172545914490804,830134,557959
1344.33325615678,0.173259434219273,828286,555803
1347.68073833018,0.174020569519982,825326,552847
1351.0238908569,0.175503080961554,821990,548736
1354.36271373695,0.176165105063739,817540,544934
1357.69720697033,0.177386557976481,813608,540790
1361.02737055704,0.178207239701799,808991,536706
1365.46085366672,0.179723050526607,805090,532257
1368.78091474452,0.180619323077445,803117,529858
1372.09664617566,0.181362580269869,800668,527339
1375.40804796012,0.181943810656615,796378,523812
1378.71512009791,0.183140524267589,790596,518578
1382.01786258902,0.184461532144928,784285,512876
1385.31627543347,0.185852699577165,778801,507661
1388.61035863124,0.188098915657011,772261,500801
1392.99573455567,0.19102590315306,760774,490038
1396.27971524454,0.193121356727941,750253,480935
1399.55936628673,0.196727799919706,741314,471275
1402.83468768226,0.200639135679673,734645,462848
1406.10567943111,0.205400541087943,730644,455308
1409.3723415333,0.210296951711517,727373,448188
1412.6346739888,0.216105837206031,725195,440909
1416.97771559022,0.223764996266292,722906,431834
1420.22994553682,0.228804177823327,721996,426315
1423.47784583676,0.234138436044518,721230,420664
1426.72141649002,0.23873690896508,720214,415647
1429.96065749661,0.242800738236092,719478,411355
1433.19556885653,0.245441378602276,718798,408475
1436.42615056978,0.247531831587141,718309,406237
1440.72685784817,0.249863767467276,718228,404016
1443.94733705251,0.25061747249734,717132,402700
1447.16348661018,0.251243482543751,716219,401608
1450.37530652118,0.252029003043044,714850,400116
1453.58279678551,0.252118206130447,713192,399106
1456.78595740317,0.25202207855144,711378,398179
1459.98478837415,0.251998646189039,709069,396908
1464.24316132953,0.251891275287858,705352,394925
1467.43188979161,0.251769192278261,702604,393497
1470.61628860702,0.250904568451085,699307,392431
1473.79635777575,0.250599030005946,696023,390863
1476.97209729782,0.249673143023633,692499,389714
1480.14350717321,0.248835000473488,688970,388477
1483.31058740193,0.247712204837359,685385,387456
1487.52662603429,0.246804589672816,680609,385561
1490.68360375411,0.245872722878281,676663,384149
1493.83625182725,0.245140993460579,672290,382310
1496.98457025372,0.243798878960656,668012,381053
1500.12855903353,0.242692604619837,663541,379468
1503.26821816666,0.241670870009364,659133,377835
1506.40354765311,0.240436250808406,654369,376172
1510.57725196245,0.238754300756995,648348,374157
1513.70247894001,0.237165172917017,643076,372475
1516.82337627089,0.236275533185771,637556,370035
1519.9399439551,0.235018120009954,632373,368091
1523.05218199264,0.233866673935922,627049,365961
1526.16009038351,0.233082743706072,621526,363393
1529.2636691277,0.23211506271437,615291,360550
1532.36291822522,0.23150365810305,609480,357648
1536.48851534932,0.230502094514322,600352,353105
1539.57766193794,0.230398112230266,594021,349465
1542.66247887988,0.229830677357921,587404,346024
1545.74296617516,0.229620020008186,580495,342120
1548.81912382376,0.22944371772038,573180,337946
1551.89095182569,0.228237274086625,565430,334304
1554.95845018095,0.228581848652891,558265,329806
1559.04171298203,0.227564925531107,547222,324040
1562.09910882838,0.227122686490283,539453,319765
1565.15217502807,0.22658555556227,531145,315230
1568.20091158108,0.22665511821003,523227,310481
1571.24531848742,0.226163696854258,514717,305777
1574.28539574709,0.225426654294556,506099,301168
1577.32114336008,0.224939514498838,496981,296074
1581.36207183814,0.224598338396795,485489,289455
1584.38771694224,0.223795544958175,476528,284638
1587.40903239966,0.222743471778573,467594,279979
1590.42601821041,0.222881953419289,458573,274490
1593.43867437448,0.221495896195801,448652,269410
1596.44700089189,0.220928821649695,440471,264843
1599.45099776262,0.220036521608182,430943,259647
1603.44959191766,0.218723935511774,417942,252576
1606.44348627949,0.217251786807584,408917,247961
1609.43305099465,0.216796550851045,399423,242458
1612.41828606314,0.215688665538811,390311,237532
1615.39919148495,0.215138903125829,380883,232088
1618.37576726009,0.214551590190067,371315,226564
1621.34801338856,0.213703590089309,361964,221290
1625.30427322059,0.213160602243998,349555,213971
1628.26641684016,0.212763105797604,340242,208461
1631.22423081305,0.212103688526998,330932,203065
1634.17771513927,0.212699609610462,321980,197301
1637.12686981883,0.211693148072036,312726,192075
1640.0716948517,0.212062621466827,303448,186218
1643.01219023791,0.211550922285052,294256,180790
1646.92611574692,0.213360110576151,282584,172897
1649.85650862422,0.213018605378758,273187,167279
1652.78257185485,0.212590116100517,264468,162100
1655.70430543881,0.213707483003637,256076,156553
1658.6217093761,0.215348032618263,247463,150717
1661.53478366672,0.216453207789842,238324,144782
1664.44352831066,0.218361835023594,229452,138781
1668.31511949665,0.218564010779765,216015,130593
1671.21376163169,0.219441263328214,204959,123659
1674.10807412006,0.219734353730996,192537,116086
1676.99805696176,0.221527897986868,179056,107513
1679.88371015678,0.22342880274214,163748,97892
1682.76503370514,0.225358981294053,147163,87587
1685.64202760682,0.226191041096086,129766,77085
1688.51469186182,0.227918710462223,112493,66559
1692.33817586257,0.231281949480253,91949,53984
1695.20073760867,0.232436357295081,78475,45951
1698.05896970811,0.237260610160549,66906,38744
1700.91287216087,0.23536921630227,57157,33243
