***Scan Config Information***,,,,,,,***Reference Scan Information***,,,,,,,,
Scan Config Name:,FolHerbario,,,,,,Scan Config Name:,Local New Reference,,,,,,,
Scan Config Type:,Slew,Num Section:,1,,,,Scan Config Type:,Slew,Num Section:,1,,,,,
Section Config Type:,Column,,,,,,Section Config Type:,Column,,,,,,,
Start Wavelength (nm):,900,,,,,,Start Wavelength (nm):,900,,,,,,,
End Wavelength (nm):,1700,,,,,,End Wavelength (nm):,1700,,,,,,,
Pattern Width (nm):,7.03,,,,,,Pattern Width (nm):,7.03,,,,,,,
Exposure (ms):,0.635,,,,,,Exposure (ms):,0.635,,,,,,,
Digital Resolution:,228,,,,,,Digital Resolution:,228,,,,,,,
Num Repeats:,20,,,,,,Num Repeats:,20,,,,,,,
PGA Gain:,64,(FixedPGA),,,,,PGA Gain:,64,(AutoPGA),,,,,,
System Temp (C):,41.58,,,,,,System Temp (C):,41.34,,,,,,,
Humidity (%):,44.43,,,,,,Humidity (%):,44.21,,,,,,,
Lamp ADC:,3077,3078,831,849,,,Lamp ADC:,3077,3078,831,849,,,,
Data Date-Time:,2025/04/03T11:24:13,,,,,,Data Date-Time:,2025/04/03T11:21:48,,,,,,,
Total Measurement Time in sec:,6.4756182,,,,,,,,,,,,,,
,,,,,,,,,,,,,,,
***General Information***,,,,,,,***Calibration Coefficients***,,,,,,,,
Model Name:,NIR-S-G1,,,,,,Shift Vector Coefficients:,-5.74589567087503,0.0468271937173058,-9.53581739805986E-05,,,,,
Serial Number:,C23R002,(95UB125GC0VC23R002),,,,,Pixel to Wavelength Coefficients:,1756.1983651918,-0.919335509971685,-0.000241825006214287,,,,,
GUI Version:,3.13.1,Revision:,930,,,,Versions (Cal/Ref/Cfg):,1,3,1,,,,,
TIVA Version:,2.4.10,,,,,,***Lamp Usage ***,,,,,,,,
DLPC Version:,2.3.1,,,,,,Total Time(hh:mm:ss):,11min 53sec ,,,,,,,
UUID:,DE:67:0C:88:67:76:74:21,,,,,,***Device/Error/Activation Status***,,,,,,,,
Main Board Version:,F,,,,,,Device Status:,0x00000001,Activation Status:,Activated,,,,,
Detector Board Version:,C,,,,,,Error status:,0x00000000,Error Code:,0x00000000000000000000000000000000,,,,,
,,,,,,,,,Error Details:,Not found,,,,,
***Scan Data***,,,,,,,,,,,,,,,
Wavelength (nm),Absorbance (AU),Reference Signal (unitless),Sample Signal (unitless)
901.701099874012,0.132143651114956,90905,67057
905.577788882674,0.129312820441425,98658,73252
909.450125041225,0.126540878806488,106456,79548
913.318108349663,0.124893578351472,115400,86559
917.18173880799,0.124611477556704,126466,94921
921.041016416205,0.122245206034647,139573,105331
926.179948793651,0.121276227149869,161729,122324
930.029069751605,0.120109430184975,181960,137996
933.873837859447,0.118608188659068,204358,155519
937.714253117177,0.117028438465538,225867,172514
941.550315524795,0.116214460320081,244010,186721
945.382025082302,0.114630121387874,259668,199429
949.209381789697,0.11353542591361,273271,210406
954.305752966049,0.112019179415788,288555,222951
958.122953023182,0.111456082799207,298925,231263
961.935800230204,0.110639995850115,308516,239132
965.744294587114,0.110157000614951,317832,246627
969.548436093912,0.10945672316996,326567,253814
973.348224750598,0.109468019787016,335119,260454
977.143660557173,0.108319300752422,343354,267561
982.197470532431,0.107611771156256,354213,276473
985.982749688744,0.106707454971636,361839,283014
989.763675994946,0.106387526078139,369330,289086
993.540249451036,0.105080740050116,376571,295642
997.312470057013,0.105171064428124,383757,301221
1001.08033781288,0.104360785753785,390571,307142
1004.84385271863,0.10332136901433,397103,313027
1009.8551014928,0.102531114568976,405240,320023
1013.60845974829,0.101881913851128,410241,324457
1017.35746515367,0.101153893608672,415171,328907
1021.10211770894,0.100181207205364,419115,332776
1024.8424174141,0.0996732357301279,422950,336214
1028.57836426914,0.0987215705084654,425938,339332
1032.30995827408,0.0984255231361989,428519,341621
1037.27864584715,0.0973610265244551,431135,344550
1041.00008320182,0.0971233829657668,433139,346341
1044.71716770638,0.0966231565128758,435125,348330
1048.42989936083,0.0964973816402902,436580,349596
1052.13827816517,0.0962656849708468,437961,350889
1055.8423041194,0.095964759497534,439672,352504
1059.54197722351,0.0954866465171755,441087,354028
1064.46810359549,0.0948119975879777,441400,354830
1068.15762004934,0.0942026412064194,439719,353975
1071.84278365308,0.0937978690103878,436996,352111
1075.52359440671,0.0928899153732022,433433,349971
1079.20005231022,0.0922378363474825,431692,349089
1082.87215736363,0.0919122974989276,431177,348934
1086.53990956692,0.0915432544358265,431817,349749
1091.42347473781,0.0904665815747373,433360,351870
1095.08107029084,0.090537343129497,435840,353826
1098.73431299376,0.0901940130031988,438196,356020
1102.38320284657,0.0900934596640317,441796,359028
1106.02773984926,0.0900900889259561,445430,361984
1109.66792400185,0.0900253398441527,449281,365168
1113.30375530432,0.0896476835010862,453767,369135
1118.14475927411,0.0898598594488421,460068,374078
1121.77043392632,0.0901247425156313,464822,377713
1125.39175572842,0.0904911434975647,470508,382011
1129.00872468041,0.0908615415876795,475844,386014
1132.62134078229,0.0917088542070377,481673,389981
1136.22960403405,0.0922593442193948,487363,394088
1139.83351443571,0.0930411182940352,493001,397930
1144.6319572044,0.0938842468212298,500507,403205
1148.22571095579,0.0945874541341293,506274,407191
1151.81511185707,0.0952680979846105,511444,410705
1155.40015990824,0.0964621347707728,517295,414263
1158.9808551093,0.0973615686268726,522996,417962
1162.55719746024,0.0984275513720056,529290,421955
1166.12918696107,0.0992855983136152,534321,425125
1170.88506852868,0.100580439158615,542280,430173
1174.44690137925,0.10144967524555,548083,433907
1178.00438137971,0.102266766880739,554324,438023
1181.55750853005,0.102812675460893,560153,442073
1185.10628283029,0.103549174428641,566361,446215
1188.65070428041,0.104163452372352,573101,450887
1192.19077288043,0.10448458881641,579862,455869
1196.90409324693,0.104685501793651,588439,462398
1200.43400519669,0.104152491703714,595215,468297
1203.95956429632,0.104234092828878,602437,473890
1207.48077054585,0.103855507397551,609298,479705
1210.99762394527,0.103198476086783,616557,486155
1214.51012449457,0.102385787088387,623240,492345
1218.01827219376,0.101665498096741,630706,499070
1222.68903135918,0.100475941231614,640253,508014
1226.18702240811,0.0990300993981927,646384,514589
1229.68066060693,0.0981760052060198,653684,521425
1233.16994595564,0.0971183964792254,660822,528404
1236.65487845423,0.0961467690020864,669138,536252
1240.13545810271,0.0955518374681222,678754,544704
1243.61168490109,0.0944425526419718,689049,554380
1248.23988286541,0.093831115865851,701514,565204
1251.70595301352,0.0929117051862266,708891,572358
1255.16767031152,0.092489931878704,716305,578906
1258.6250347594,0.0918490416536866,723586,585654
1262.07804635718,0.0913711563409062,730326,591760
1265.52670510484,0.0909340288715669,736450,597323
1268.97101100239,0.0909486379023192,742536,602239
1273.55664776562,0.0902066524958675,751135,610255
1276.99079701291,0.0898432146599544,756598,615208
1280.42059341009,0.0893927704570474,761637,619948
1283.84603695715,0.0890450890733132,767088,624885
1287.26712765411,0.0886949352991283,772572,629860
1290.68386550095,0.0881966345857965,777426,634545
1294.09625049768,0.0880771479655953,782463,638832
1298.63932605982,0.0878463490763686,788877,644411
1302.04155440629,0.0874365513974858,793233,648581
1305.43942990264,0.087540324795424,797621,652013
1308.83295254889,0.0875696178629268,801564,655192
1312.22212234502,0.0877651962244703,805734,658304
1315.60693929105,0.0878637663951499,809297,661065
1320.11325745224,0.0881193035436775,813066,663753
1323.487917748,0.0887780222429052,815327,664590
1326.85822519365,0.089478621444365,818097,665773
1330.22417978919,0.090332441943104,820687,666569
1333.58578153461,0.0910604643042297,822038,666548
1336.94303042993,0.0926762757631836,823405,665177
1340.29592647513,0.0942084931105964,825258,664326
1344.75968343522,0.0964668873072426,826023,661493
1348.10242283016,0.0983352092732596,825561,658285
1351.44080937499,0.100274535967179,824266,654324
1354.77484306971,0.102077519430429,822257,650025
1358.10452391432,0.104186133328915,820497,645492
1361.42985190881,0.106021617087312,818575,641264
1364.75082705319,0.107707040804704,817943,638287
1369.17202281219,0.10984613319838,818824,635835
1372.48284130632,0.111325029149772,818720,633593
1375.78930695032,0.11259959694467,816418,629960
1379.09141974422,0.114217802797577,812985,624978
1382.38917968801,0.116498637507755,809684,619180
1385.68258678168,0.118941883703343,806768,613489
1388.97164102524,0.122333133811074,803469,606228
1393.35027558315,0.128091584251925,798148,594281
1396.62917317645,0.13295417100281,794410,584912
1399.90371791964,0.139120076746126,792288,575126
1403.17390981272,0.145795104292445,790980,565419
1406.43974885568,0.15360212355825,791573,555762
1409.70123504853,0.162020236154965,792765,545914
1412.95836839128,0.170448226210502,792799,535445
1417.29444174809,0.181767721687637,792885,521726
1420.54141844057,0.189448272520504,793033,512676
1423.78404228294,0.196760360842843,793210,504229
1427.0223132752,0.202983277616239,792357,496521
1430.25623141734,0.208523519238495,791631,489778
1433.48579670937,0.212796284419993,791600,484964
1436.71100915129,0.215923403096748,790001,480512
1441.00452130702,0.21932875637888,788803,476036
1444.21957709868,0.220822056919319,787265,473477
1447.43028004022,0.221787549678568,785271,471229
1450.63663013166,0.222153753984999,782943,469436
1453.83862737298,0.222553799958097,780254,467393
1457.0362717642,0.222751259464327,777155,465325
1460.2295633053,0.223204391089237,774024,462967
1464.48051425993,0.222929734094459,768716,460083
1467.66364915076,0.222968501661451,765177,457924
1470.84243119149,0.221986519876665,760878,456382
1474.01686038211,0.221346583635818,756876,454651
1477.18693672261,0.220035160103238,751711,452914
1480.35266021301,0.218914463845736,746486,450928
1483.51403085329,0.217471776776137,740623,448875
1487.72242060682,0.215503735393399,733587,446630
1490.87363459684,0.214183099060699,727708,444400
1494.02049573675,0.212506507101055,721291,442185
1497.16300402654,0.210835293576171,714928,439974
1500.30115946623,0.209099839784383,708759,437924
1503.4349620558,0.207778363246817,701878,434994
1506.56441179526,0.205959437682162,694468,432208
1510.7302403477,0.203511989535073,685256,428885
1513.8495334369,0.201824336881794,677709,425813
1516.96447367598,0.199942095278424,668628,421932
1520.07506106496,0.198446936171233,660858,418467
1523.18129560382,0.196755998507192,653105,415171
1526.28317729258,0.19562064233663,645047,411122
1529.38070613122,0.194188086965943,636264,406864
1533.50397348256,0.192741261517219,624740,400828
1536.59134567094,0.192028707974644,616172,395980
1539.67436500921,0.191146380879159,607219,391020
1542.75303149736,0.190242093882454,598034,385908
1545.82734513541,0.189437160300804,588761,380629
1548.89730592334,0.188523132607537,579455,375402
1551.96291386116,0.187923863263442,569560,369501
1556.04362001141,0.186714807023908,556076,361759
1559.09907129897,0.186099029026307,546416,355979
1562.15016973641,0.1854020144188,536052,349788
1565.19691532375,0.184647929170671,526099,343890
1568.23930806097,0.184028685880897,515803,337641
1571.27734794808,0.183316638146694,505836,331660
1574.31103498508,0.182548098040406,495953,325756
1578.34917993424,0.182013207264296,482270,317159
1581.37271032098,0.18058924291434,471731,311247
1584.39188785761,0.179473035443699,461672,305394
1587.40671254412,0.17903122559906,451779,299154
1590.41718438052,0.178119397895444,441182,292751
1593.42330336681,0.175690264493256,430311,287139
1596.42506950299,0.175149076422367,420847,281174
1600.42065325106,0.172813918531665,406804,273257
1603.41226273698,0.171301507034951,396714,267409
1606.39951937278,0.170059387269886,386535,261294
1609.38242315848,0.168315423914404,376956,255844
1612.36097409406,0.166592617668153,367238,250239
1615.33517217953,0.165560066992492,357318,244059
1618.30501741489,0.163630727615195,347614,238488
1622.25803996186,0.162932162419142,335217,230353
1625.21772854696,0.161514857251122,325506,224411
1628.17306428194,0.160419883496668,316082,218464
1631.12404716682,0.15968386514126,306957,212517
1634.07067720158,0.158487804549443,297538,206564
1637.01295438623,0.158832038543602,288473,200112
1639.95087872077,0.158558654213611,278933,193616
1643.86134006665,0.158714095045839,266463,184894
1646.78910775092,0.158995025471777,257331,178442
1649.71252258509,0.160430602553105,248175,171525
1652.63158456914,0.160320501742976,239164,165339
1655.54629370308,0.161826016682368,230442,158758
1658.45664998691,0.163205125266443,221892,152383
1661.36265342063,0.163918709084825,213106,146109
1665.23055356542,0.16634873209414,200714,136845
1668.12640034887,0.168952060325698,191077,129496
1671.01789428222,0.170610234010875,180859,122104
1673.90503536545,0.17232476030012,169510,113991
1676.78782359857,0.173196545365717,156783,105221
1679.66625898158,0.175471376069804,143522,95818
1682.54034151448,0.178060828956322,128955,85581
1686.36568045817,0.177771062187392,108926,72337
1689.22960634081,0.183820610806995,94841,62112
1692.08917937333,0.184204193645451,81022,53015
1694.94439955575,0.185421970659363,68923,44972
1697.79526688805,0.184386973204496,58350,38164
1700.64178137024,0.187446673445267,49849,32375
