***Scan Config Information***,,,,,,,***Reference Scan Information***,,,,,,,,
Scan Config Name:,FolHerbario,,,,,,Scan Config Name:,Local New Reference,,,,,,,
Scan Config Type:,Slew,Num Section:,1,,,,Scan Config Type:,Slew,Num Section:,1,,,,,
Section Config Type:,Column,,,,,,Section Config Type:,Column,,,,,,,
Start Wavelength (nm):,900,,,,,,Start Wavelength (nm):,900,,,,,,,
End Wavelength (nm):,1700,,,,,,End Wavelength (nm):,1700,,,,,,,
Pattern Width (nm):,7.03,,,,,,Pattern Width (nm):,7.03,,,,,,,
Exposure (ms):,0.635,,,,,,Exposure (ms):,0.635,,,,,,,
Digital Resolution:,228,,,,,,Digital Resolution:,228,,,,,,,
Num Repeats:,20,,,,,,Num Repeats:,20,,,,,,,
PGA Gain:,64,(FixedPGA),,,,,PGA Gain:,64,(AutoPGA),,,,,,
System Temp (C):,41.28,,,,,,System Temp (C):,41.46,,,,,,,
Humidity (%):,46.34,,,,,,Humidity (%):,47.96,,,,,,,
Lamp ADC:,3077,3079,831,849,,,Lamp ADC:,3077,3079,831,849,,,,
Data Date-Time:,2025/04/03T11:09:46,,,,,,Data Date-Time:,2025/04/03T11:03:59,,,,,,,
Total Measurement Time in sec:,6.4804714,,,,,,,,,,,,,,
,,,,,,,,,,,,,,,
***General Information***,,,,,,,***Calibration Coefficients***,,,,,,,,
Model Name:,NIR-S-G1,,,,,,Shift Vector Coefficients:,-5.74589567087503,0.0468271937173058,-9.53581739805986E-05,,,,,
Serial Number:,C23R002,(95UB125GC0VC23R002),,,,,Pixel to Wavelength Coefficients:,1756.1983651918,-0.919335509971685,-0.000241825006214287,,,,,
GUI Version:,3.13.1,Revision:,930,,,,Versions (Cal/Ref/Cfg):,1,3,1,,,,,
TIVA Version:,2.4.10,,,,,,***Lamp Usage ***,,,,,,,,
DLPC Version:,2.3.1,,,,,,Total Time(hh:mm:ss):,10min 18sec ,,,,,,,
UUID:,DE:67:0C:88:67:76:74:21,,,,,,***Device/Error/Activation Status***,,,,,,,,
Main Board Version:,F,,,,,,Device Status:,0x00000001,Activation Status:,Activated,,,,,
Detector Board Version:,C,,,,,,Error status:,0x00000000,Error Code:,0x00000000000000000000000000000000,,,,,
,,,,,,,,,Error Details:,Not found,,,,,
***Scan Data***,,,,,,,,,,,,,,,
Wavelength (nm),Absorbance (AU),Reference Signal (unitless),Sample Signal (unitless)
901.701099874012,0.318202643354852,90921,43698
905.577788882674,0.315021187078551,98825,47846
909.450125041225,0.307498483845751,106535,52480
913.318108349663,0.305179884740181,115563,57232
917.18173880799,0.303236471723096,126487,62923
921.041016416205,0.301517588428642,139917,69880
926.179948793651,0.296821703572047,161856,81716
930.029069751605,0.292427716148792,181805,92721
933.873837859447,0.291507723072218,204845,104693
937.714253117177,0.288356259559466,226122,116409
941.550315524795,0.284670213846606,244163,126768
945.382025082302,0.282951157923901,260171,135615
949.209381789697,0.279992377784727,273143,143350
954.305752966049,0.277725172198361,288968,152449
958.122953023182,0.274931550576781,299001,158760
961.935800230204,0.272902814914846,308735,164696
965.744294587114,0.270986935022594,317652,170202
969.548436093912,0.2691108057113,326559,175732
973.348224750598,0.267060430320592,334951,181101
977.143660557173,0.265089214482646,343137,186371
982.197470532431,0.263113745238026,354237,193277
985.982749688744,0.261789867052475,361913,198068
989.763675994946,0.260231918142679,369298,202836
993.540249451036,0.258996062965674,376589,207430
997.312470057013,0.258086348843974,383700,211790
1001.08033781288,0.256339412278878,390442,216380
1004.84385271863,0.255569041855222,396737,220259
1009.8551014928,0.254216144704779,404957,225524
1013.60845974829,0.253240585886962,410267,228995
1017.35746515367,0.252050174236666,415158,232361
1021.10211770894,0.251774976496528,419225,234786
1024.8424174141,0.249635998537299,422732,237919
1028.57836426914,0.249189081809971,426069,240044
1032.30995827408,0.248280170983882,428680,242021
1037.27864584715,0.247038142896457,430861,243949
1041.00008320182,0.246522602254694,433123,245521
1044.71716770638,0.245778618538076,434900,246951
1048.42989936083,0.245328629869286,436661,248208
1052.13827816517,0.244460532099376,437687,249289
1055.8423041194,0.243915131421546,439277,250509
1059.54197722351,0.243835229018028,441002,251539
1064.46810359549,0.242622390654122,441232,252374
1068.15762004934,0.241927465203749,439858,251991
1071.84278365308,0.241359146992344,436450,250366
1075.52359440671,0.241022692506286,433426,248824
1079.20005231022,0.239349203203003,431445,248643
1082.87215736363,0.239221982546676,431277,248619
1086.53990956692,0.238999376984502,431805,249051
1091.42347473781,0.238268902092646,433667,250546
1095.08107029084,0.237971330990487,435987,252059
1098.73431299376,0.236510251181706,438167,254173
1102.38320284657,0.237048722091803,441707,255909
1106.02773984926,0.236249326266936,445605,258643
1109.66792400185,0.235665518502537,449220,261092
1113.30375530432,0.235498243624408,453787,263848
1118.14475927411,0.235160458637562,460219,267796
1121.77043392632,0.23531163155908,465155,270574
1125.39175572842,0.234493551526275,470589,274251
1129.00872468041,0.234463356016751,476275,277584
1132.62134078229,0.234155977797593,481735,280965
1136.22960403405,0.234270477029271,487441,284218
1139.83351443571,0.234202031497679,492956,287479
1144.6319572044,0.234112453672939,500636,292018
1148.22571095579,0.234140907009526,506469,295401
1151.81511185707,0.233939390383991,511987,298758
1155.40015990824,0.234023270774401,517540,301940
1158.9808551093,0.234264012434841,523742,305389
1162.55719746024,0.233970143218048,529465,308935
1166.12918696107,0.233836382425245,534495,311966
1170.88506852868,0.233760719117519,542328,316593
1174.44690137925,0.234281165105243,548590,319865
1178.00438137971,0.233905952294675,554316,323483
1181.55750853005,0.234637833310475,560342,326449
1185.10628283029,0.234594307660419,566734,330206
1188.65070428041,0.233946564556878,573375,334574
1192.19077288043,0.233879155556527,579996,338490
1196.90409324693,0.233530607149047,588723,343859
1200.43400519669,0.233379738274026,595801,348114
1203.95956429632,0.232606282412302,602540,352679
1207.48077054585,0.232078774526576,609716,357313
1210.99762394527,0.231527100989093,616369,361671
1214.51012449457,0.230749930901691,623647,366597
1218.01827219376,0.229478125342386,630876,371934
1222.68903135918,0.228121097628365,640313,378679
1226.18702240811,0.22757723290458,646738,382958
1229.68066060693,0.226159385303155,653841,388430
1233.16994595564,0.22519120787349,660949,393529
1236.65487845423,0.224709643608833,669479,399050
1240.13545810271,0.223906418047654,679043,405500
1243.61168490109,0.223264106476078,689067,412095
1248.23988286541,0.222664937430805,701791,420284
1251.70595301352,0.222409273927008,709400,425091
1255.16767031152,0.221485888727606,716621,430332
1258.6250347594,0.221049624369556,723950,435170
1262.07804635718,0.220590890542019,730787,439744
1265.52670510484,0.220341216337113,736788,443610
1268.97101100239,0.22004788551057,742835,447553
1273.55664776562,0.219378641113017,751482,453461
1276.99079701291,0.219235170345808,757052,456973
1280.42059341009,0.218642691905615,761946,460555
1283.84603695715,0.218416233103274,767614,464223
1287.26712765411,0.218080208767091,773137,467925
1290.68386550095,0.217562097001617,778049,471460
1294.09625049768,0.217313435292534,782809,474616
1298.63932605982,0.217026229931887,789440,478953
1302.04155440629,0.216783256578025,793896,481926
1305.43942990264,0.216418906057734,797992,484819
1308.83295254889,0.216528619139025,802084,487182
1312.22212234502,0.216088267249115,805975,490042
1315.60693929105,0.216132117621097,809884,492369
1320.11325745224,0.215914483403289,813470,494797
1323.487917748,0.215922411781678,815706,496148
1326.85822519365,0.215924227133395,818700,497967
1330.22417978919,0.216262911772276,821119,499049
1333.58578153461,0.216243985589318,822768,500073
1336.94303042993,0.216536835904269,823891,500418
1340.29592647513,0.216940524524391,825524,500944
1344.75968343522,0.217601285807071,826200,500592
1348.10242283016,0.218044533148908,825755,499812
1351.44080937499,0.218592398525588,824364,498341
1354.77484306971,0.219016612257133,822055,496460
1358.10452391432,0.219286750963213,819889,494844
1361.42985190881,0.220223492434035,818463,492919
1364.75082705319,0.220787609418782,817816,491890
1369.17202281219,0.221574309002215,818934,491671
1372.48284130632,0.222467942134116,818870,490622
1375.78930695032,0.222655263851327,816560,489027
1379.09141974422,0.223551065916412,812957,485866
1382.38917968801,0.22449835172113,809554,482778
1385.68258678168,0.22531111170006,806899,480295
1388.97164102524,0.226755226661312,803869,476903
1393.35027558315,0.228540255557277,798404,471718
1396.62917317645,0.230402638299558,794735,467541
1399.90371791964,0.23249985303075,792030,463705
1403.17390981272,0.235296498267415,791503,460422
1406.43974885568,0.238551711573319,791841,457179
1409.70123504853,0.242289098429634,793159,454016
1412.95836839128,0.246059205242925,793348,450199
1417.29444174809,0.250765248088083,793414,445384
1420.54141844057,0.25437991048462,793433,441703
1423.78404228294,0.257720515584301,793539,438377
1427.0223132752,0.260673991767781,793100,435165
1430.25623141734,0.263588496327428,792002,431656
1433.48579670937,0.265732505525266,791913,429482
1436.71100915129,0.267434518675479,790691,427142
1441.00452130702,0.268915061301241,789054,424807
1444.21957709868,0.269810737614768,787530,423113
1447.43028004022,0.270652401282077,785686,421305
1450.63663013166,0.271014423274033,783661,419869
1453.83862737298,0.271314207671626,780928,418116
1457.0362717642,0.271392393396379,777863,416400
1460.2295633053,0.271131781363243,774553,414877
1464.48051425993,0.271330673651493,769310,411880
1467.66364915076,0.270831780508107,765410,410263
1470.84243119149,0.270431667853499,761214,408390
1474.01686038211,0.270263483315843,757068,406323
1477.18693672261,0.269679310494354,752221,404265
1480.35266021301,0.269101222352987,746926,401954
1483.51403085329,0.268681386135948,741294,399309
1487.72242060682,0.267785182857445,734095,396248
1490.87363459684,0.266863897704779,727938,393759
1494.02049573675,0.266388084886511,721913,390928
1497.16300402654,0.265462925896263,715488,388275
1500.30115946623,0.264339089347715,709055,385781
1503.4349620558,0.263849969250677,702270,382520
1506.56441179526,0.263118685351982,695130,379269
1510.7302403477,0.262086451091942,685696,375012
1513.8495334369,0.261046153165523,678129,371763
1516.96447367598,0.260602593463265,669111,367194
1520.07506106496,0.259706075438402,661472,363752
1523.18129560382,0.258687713244955,653290,360096
1526.28317729258,0.25816609463014,645515,356238
1529.38070613122,0.257257517287095,636810,352170
1533.50397348256,0.256452098221625,625270,346430
1536.59134567094,0.255988028634889,616451,341909
1539.67436500921,0.25562226266311,607685,337331
1542.75303149736,0.255046644063046,598232,332524
1545.82734513541,0.254619722002884,589143,327794
1548.89730592334,0.253853056207453,579458,322975
1551.96291386116,0.253121186600515,569808,318132
1556.04362001141,0.252784194476641,556353,310861
1559.09907129897,0.252784918926453,546523,305368
1562.15016973641,0.252238370650288,536514,300153
1565.19691532375,0.25179700173859,526289,294732
1568.23930806097,0.251258373570737,515867,289254
1571.27734794808,0.251160755473813,506128,283857
1574.31103498508,0.250580168076517,496139,278627
1578.34917993424,0.250706270090452,482837,271078
1581.37271032098,0.249698958901049,472412,265841
1584.39188785761,0.24885441277829,462213,260608
1587.40671254412,0.248847269900425,451940,254820
1590.41718438052,0.247904421274174,441545,249500
1593.42330336681,0.247243189452122,430704,243745
1596.42506950299,0.24711036852028,421058,238359
1600.42065325106,0.246023299773238,406848,230892
1603.41226273698,0.245303217264022,396854,225594
1606.39951937278,0.244718918789861,386630,220078
1609.38242315848,0.243964620372943,376894,214909
1612.36097409406,0.243598517469285,367335,209635
1615.33517217953,0.243758241132114,357589,203998
1618.30501741489,0.242833101050704,347972,198935
1622.25803996186,0.241098042322105,335100,192343
1625.21772854696,0.241915428889371,325700,186596
1628.17306428194,0.240805635733681,316141,181583
1631.12404716682,0.241120178669471,306892,176143
1634.07067720158,0.240987513616027,297769,170959
1637.01295438623,0.240631953980785,288627,165846
1639.95087872077,0.239575374191639,278733,160551
1643.86134006665,0.24012692911292,266667,153406
1646.78910775092,0.240347114339103,257508,148062
1649.71252258509,0.240511323959577,248031,142559
1652.63158456914,0.240605679294332,239208,137458
1655.54629370308,0.240783824834486,230302,132286
1658.45664998691,0.241949958741976,221940,127141
1661.36265342063,0.241890592805738,212900,121979
1665.23055356542,0.243015856021507,200580,114623
1668.12640034887,0.244952274221617,191111,108726
1671.01789428222,0.246641205786034,180550,102319
1673.90503536545,0.245521094512921,169046,96047
1676.78782359857,0.247563453827737,156545,88527
1679.66625898158,0.247764816570129,142682,80650
1682.54034151448,0.25154011098326,128557,72037
1686.36568045817,0.25239121860219,108466,60660
1689.22960634081,0.253355506773721,93901,52398
1692.08917937333,0.253635562988687,80290,44774
1694.94439955575,0.256081359707301,68468,37967
1697.79526688805,0.259417407000489,58156,32002
1700.64178137024,0.25926003313581,49477,27236
