***Scan Config Information***,,,,,,,***Reference Scan Information***,,,,,,,,
Scan Config Name:,FolHerbario,,,,,,Scan Config Name:,Local New Reference,,,,,,,
Scan Config Type:,Slew,Num Section:,1,,,,Scan Config Type:,Slew,Num Section:,1,,,,,
Section Config Type:,Column,,,,,,Section Config Type:,Column,,,,,,,
Start Wavelength (nm):,900,,,,,,Start Wavelength (nm):,900,,,,,,,
End Wavelength (nm):,1700,,,,,,End Wavelength (nm):,1700,,,,,,,
Pattern Width (nm):,7.03,,,,,,Pattern Width (nm):,7.03,,,,,,,
Exposure (ms):,0.635,,,,,,Exposure (ms):,0.635,,,,,,,
Digital Resolution:,228,,,,,,Digital Resolution:,228,,,,,,,
Num Repeats:,20,,,,,,Num Repeats:,20,,,,,,,
PGA Gain:,64,(FixedPGA),,,,,PGA Gain:,64,(AutoPGA),,,,,,
System Temp (C):,40.05,,,,,,System Temp (C):,39.82,,,,,,,
Humidity (%):,47.65,,,,,,Humidity (%):,46.46,,,,,,,
Lamp ADC:,3077,3078,831,849,,,Lamp ADC:,3077,3078,831,849,,,,
Data Date-Time:,2025/04/03T10:53:24,,,,,,Data Date-Time:,2025/04/03T10:48:24,,,,,,,
Total Measurement Time in sec:,6.4876729,,,,,,,,,,,,,,
,,,,,,,,,,,,,,,
***General Information***,,,,,,,***Calibration Coefficients***,,,,,,,,
Model Name:,NIR-S-G1,,,,,,Shift Vector Coefficients:,-5.74589567087503,0.0468271937173058,-9.53581739805986E-05,,,,,
Serial Number:,C23R002,(95UB125GC0VC23R002),,,,,Pixel to Wavelength Coefficients:,1756.1983651918,-0.919335509971685,-0.000241825006214287,,,,,
GUI Version:,3.13.1,Revision:,930,,,,Versions (Cal/Ref/Cfg):,1,3,1,,,,,
TIVA Version:,2.4.10,,,,,,***Lamp Usage ***,,,,,,,,
DLPC Version:,2.3.1,,,,,,Total Time(hh:mm:ss):,8min 7sec ,,,,,,,
UUID:,DE:67:0C:88:67:76:74:21,,,,,,***Device/Error/Activation Status***,,,,,,,,
Main Board Version:,F,,,,,,Device Status:,0x00000001,Activation Status:,Activated,,,,,
Detector Board Version:,C,,,,,,Error status:,0x00000000,Error Code:,0x00000000000000000000000000000000,,,,,
,,,,,,,,,Error Details:,Not found,,,,,
***Scan Data***,,,,,,,,,,,,,,,
Wavelength (nm),Absorbance (AU),Reference Signal (unitless),Sample Signal (unitless)
901.701099874012,0.451340755000626,91123,32232
905.577788882674,0.44611517365342,98413,35232
909.450125041225,0.443305477708965,106304,38304
913.318108349663,0.438902654268581,115828,42161
917.18173880799,0.435087753956417,126702,46526
921.041016416205,0.431427034957481,140037,51858
926.179948793651,0.426683607247854,162339,60777
930.029069751605,0.423562282335484,183031,69018
933.873837859447,0.42160012667515,205707,77920
937.714253117177,0.417738580004968,226975,86744
941.550315524795,0.41387947486903,244973,94458
945.382025082302,0.411806559559842,260465,100912
949.209381789697,0.408800768644319,273669,106764
954.305752966049,0.403619022249245,288655,113962
958.122953023182,0.400464837629115,299046,118925
961.935800230204,0.398515253285832,308611,123281
965.744294587114,0.394503258486415,317629,128061
969.548436093912,0.392732747104,326761,132281
973.348224750598,0.388572296963203,334751,136820
977.143660557173,0.385901809025971,343352,141201
982.197470532431,0.382643906736967,354258,146783
985.982749688744,0.380240531930742,361798,150739
989.763675994946,0.376770475644949,369343,155117
993.540249451036,0.373106484844032,376225,159346
997.312470057013,0.371927648973469,383689,162949
1001.08033781288,0.36775952459899,390365,167383
1004.84385271863,0.366268515981984,396497,170597
1009.8551014928,0.362274412904837,404612,175697
1013.60845974829,0.359989766910326,409893,178929
1017.35746515367,0.357788218594562,414592,181900
1021.10211770894,0.355257556296492,418537,184704
1024.8424174141,0.352724000759556,422541,187562
1028.57836426914,0.349591930887374,425548,190264
1032.30995827408,0.347925945956707,428025,192107
1037.27864584715,0.344493777345748,430350,194683
1041.00008320182,0.341376158849879,432809,197206
1044.71716770638,0.339213433816942,434627,199023
1048.42989936083,0.3359482120858,435921,201122
1052.13827816517,0.333757707068669,437560,202899
1055.8423041194,0.330815693211265,439209,205048
1059.54197722351,0.328118579551706,440528,206945
1064.46810359549,0.325327558850846,441198,208596
1068.15762004934,0.323366397512749,439606,208784
1071.84278365308,0.321702349760716,436853,208273
1075.52359440671,0.319662172774391,433386,207593
1079.20005231022,0.318574594134879,431644,207277
1082.87215736363,0.316006462169685,430985,208188
1086.53990956692,0.314134989033244,431494,209334
1091.42347473781,0.311216601569579,433170,211564
1095.08107029084,0.310110608112501,435728,213356
1098.73431299376,0.307655159275749,438001,215685
1102.38320284657,0.305877604554879,441713,218405
1106.02773984926,0.30371792284883,445376,221314
1109.66792400185,0.302043893985903,448997,223975
1113.30375530432,0.299587842933997,453671,227590
1118.14475927411,0.297382557863676,460048,231964
1121.77043392632,0.29570232341438,465204,235473
1125.39175572842,0.294191234799819,470341,238903
1129.00872468041,0.292566118583967,475916,242641
1132.62134078229,0.29089040592369,481713,246546
1136.22960403405,0.289895208353746,487480,250070
1139.83351443571,0.287994319278417,492833,253925
1144.6319572044,0.286224942667468,500813,259090
1148.22571095579,0.284387453516113,506213,262994
1151.81511185707,0.28357691217675,511832,266410
1155.40015990824,0.282403674972307,517529,270104
1158.9808551093,0.281118641981043,523651,274109
1162.55719746024,0.280114927744582,529418,277769
1166.12918696107,0.279171638128444,534766,281185
1170.88506852868,0.277656348882353,542315,286151
1174.44690137925,0.27666372610348,548561,290109
1178.00438137971,0.275319391391308,554434,294124
1181.55750853005,0.2746211474075,560375,297754
1185.10628283029,0.273966688609879,566937,301695
1188.65070428041,0.272396790100258,573289,306180
1192.19077288043,0.271867245157142,580011,310148
1196.90409324693,0.270514531791952,588761,315809
1200.43400519669,0.269505945098548,595674,320260
1203.95956429632,0.268303744925779,602669,324919
1207.48077054585,0.267434962315882,609554,329289
1210.99762394527,0.266092187324368,616676,334168
1214.51012449457,0.26543380774128,623783,338532
1218.01827219376,0.263947097188706,631033,343641
1222.68903135918,0.2633652765242,640676,349360
1226.18702240811,0.261826963643343,646844,353975
1229.68066060693,0.261080052940118,654217,358626
1233.16994595564,0.260079451550532,661393,363396
1236.65487845423,0.259002511459213,669537,368784
1240.13545810271,0.25809674777976,679239,374909
1243.61168490109,0.257563762011413,689520,381051
1248.23988286541,0.256425577331264,702011,388972
1251.70595301352,0.255447271201275,709860,394208
1255.16767031152,0.254546843035603,716859,398921
1258.6250347594,0.254119150513611,724722,403694
1262.07804635718,0.253054461017529,731051,408219
1265.52670510484,0.252003667897912,736952,412511
1268.97101100239,0.251200734370156,743082,416712
1273.55664776562,0.25026363098462,751854,422542
1276.99079701291,0.249523035408243,757474,426427
1280.42059341009,0.248506099592639,762465,430243
1283.84603695715,0.248222326602062,768038,433671
1287.26712765411,0.247527173224681,773313,437349
1290.68386550095,0.246551746775809,778455,441247
1294.09625049768,0.246068575068756,783174,444416
1298.63932605982,0.245123377647114,789852,449182
1302.04155440629,0.244375824744328,794153,452406
1305.43942990264,0.243970262896285,798666,455402
1308.83295254889,0.24345930221106,802474,458112
1312.22212234502,0.242735024363704,806252,461037
1315.60693929105,0.242142392386724,810142,463894
1320.11325745224,0.241605101574893,814162,466773
1323.487917748,0.241351786190231,816323,468285
1326.85822519365,0.240944717633427,819172,470360
1330.22417978919,0.240563922105698,821614,472176
1333.58578153461,0.240367478331636,823260,473336
1336.94303042993,0.24021647408306,824516,474223
1340.29592647513,0.240171331075839,826061,475161
1344.75968343522,0.239746765721515,826843,476076
1348.10242283016,0.239985066279285,826527,475633
1351.44080937499,0.240034472649105,825401,474931
1354.77484306971,0.240387639941,823620,473521
1358.10452391432,0.240482084671506,821534,472219
1361.42985190881,0.240260182974526,819532,471309
1364.75082705319,0.240063973009932,818882,471148
1369.17202281219,0.240477864175541,819922,471297
1372.48284130632,0.240126090717876,819465,471416
1375.78930695032,0.240359208290305,817357,469951
1379.09141974422,0.241131602705931,814315,467370
1382.38917968801,0.241616734142802,810922,464903
1385.68258678168,0.242620640404209,808045,462184
1388.97164102524,0.244017047746528,804840,458873
1393.35027558315,0.245851063168088,799455,453882
1396.62917317645,0.247188186448105,795618,450315
1399.90371791964,0.248732770961361,793449,447493
1403.17390981272,0.250341060208523,792134,445100
1406.43974885568,0.252227839711089,792639,443453
1409.70123504853,0.255139791585024,793768,441117
1412.95836839128,0.258014203970807,793757,438201
1417.29444174809,0.260851337757523,793774,435357
1420.54141844057,0.262555001775363,794022,433788
1423.78404228294,0.263141971929709,793866,433117
1427.0223132752,0.264969557976324,793538,431120
1430.25623141734,0.266119917097542,792533,429435
1433.48579670937,0.26693402660411,792086,428389
1436.71100915129,0.267832680395852,791029,426933
1441.00452130702,0.268235862044309,789516,425721
1444.21957709868,0.268520838778265,788249,424759
1447.43028004022,0.268519703893596,786072,423587
1450.63663013166,0.268451792054179,783999,422536
1453.83862737298,0.268150552490344,781375,421414
1457.0362717642,0.268035301390008,778389,419915
1460.2295633053,0.267508322833445,774779,418475
1464.48051425993,0.267437428887843,769934,415926
1467.66364915076,0.266948697261528,765749,414131
1470.84243119149,0.266733823842185,761929,412269
1474.01686038211,0.265980699108081,757371,410514
1477.18693672261,0.265536053036044,752521,408303
1480.35266021301,0.264424517761551,747305,406512
1483.51403085329,0.263936941897053,741582,403852
1487.72242060682,0.262902301300724,734351,400868
1490.87363459684,0.262103938207271,728217,398251
1494.02049573675,0.261670044121735,721922,395203
1497.16300402654,0.260489875741279,715618,392818
1500.30115946623,0.260276020331099,709530,389668
1503.4349620558,0.259207838340923,702732,386885
1506.56441179526,0.258353940445892,695402,383603
1510.7302403477,0.257152411725454,686085,379512
1513.8495334369,0.256456388322427,678402,375864
1516.96447367598,0.255591497103975,669539,371693
1520.07506106496,0.254678009824046,661404,367950
1523.18129560382,0.254186641471951,653905,364190
1526.28317729258,0.253460906024074,645826,360292
1529.38070613122,0.251967076140099,636722,356437
1533.50397348256,0.251246244617669,625301,350625
1536.59134567094,0.250954769085413,617022,346215
1539.67436500921,0.25007023433326,607699,341679
1542.75303149736,0.249764044501877,598489,336738
1545.82734513541,0.249335336247588,589493,332004
1548.89730592334,0.248870521982382,579948,326978
1551.96291386116,0.248445649306539,570034,321703
1556.04362001141,0.248038363165773,556513,314367
1559.09907129897,0.247469779586808,546710,309234
1562.15016973641,0.247239443776977,536592,303672
1565.19691532375,0.247082575296909,526450,298040
1568.23930806097,0.246904529123911,516253,292387
1571.27734794808,0.246865056014184,506480,286878
1574.31103498508,0.246401601397545,496471,281509
1578.34917993424,0.246019075515131,482526,273843
1581.37271032098,0.245307238530474,472428,268552
1584.39188785761,0.245053396712911,462389,262999
1587.40671254412,0.24494604819712,452073,257195
1590.41718438052,0.244509110632118,441592,251485
1593.42330336681,0.244195663816111,430698,245458
1596.42506950299,0.243171560833765,420495,240209
1600.42065325106,0.242714284065494,406960,232722
1603.41226273698,0.243055827378817,396960,226825
1606.39951937278,0.242963108457676,386797,221065
1609.38242315848,0.242367401243362,377083,215809
1612.36097409406,0.241342819209883,367102,210593
1615.33517217953,0.241423857337671,357236,204895
1618.30501741489,0.241354766645334,347696,199455
1622.25803996186,0.241366779340115,335222,192294
1625.21772854696,0.241250662420113,325587,186817
1628.17306428194,0.240913443625433,316115,181523
1631.12404716682,0.241131578036416,306799,176085
1634.07067720158,0.240352147186908,297525,171069
1637.01295438623,0.241825941104818,288474,165303
1639.95087872077,0.241354454449558,278826,159948
1643.86134006665,0.241919716234673,266447,152648
1646.78910775092,0.241733360348758,257007,147303
1649.71252258509,0.242797036646712,247701,141622
1652.63158456914,0.242731902675838,238593,136435
1655.54629370308,0.243520046855068,229890,131220
1658.45664998691,0.244272500046155,221340,126121
1661.36265342063,0.245034115011237,212133,120663
1665.23055356542,0.244260202687993,199455,113654
1668.12640034887,0.244627081128468,189475,107876
1671.01789428222,0.244490970863569,178524,101673
1673.90503536545,0.244654504897801,166415,94741
1676.78782359857,0.243376127686137,152605,87135
1679.66625898158,0.245634630419313,138609,78733
1682.54034151448,0.246006837930412,123705,70207
1686.36568045817,0.246941625639726,103626,58685
1689.22960634081,0.245788485562844,89338,50728
1692.08917937333,0.247518849290217,76064,43019
1694.94439955575,0.245223610598014,64644,36754
1697.79526688805,0.246612607386325,54746,31027
1700.64178137024,0.252404159981432,46601,26061
