***Scan Config Information***,,,,,,,***Reference Scan Information***,,,,,,,,
Scan Config Name:,FolHerbario,,,,,,Scan Config Name:,Local New Reference,,,,,,,
Scan Config Type:,Slew,Num Section:,1,,,,Scan Config Type:,Slew,Num Section:,1,,,,,
Section Config Type:,Column,,,,,,Section Config Type:,Column,,,,,,,
Start Wavelength (nm):,900,,,,,,Start Wavelength (nm):,900,,,,,,,
End Wavelength (nm):,1700,,,,,,End Wavelength (nm):,1700,,,,,,,
Pattern Width (nm):,7.03,,,,,,Pattern Width (nm):,7.03,,,,,,,
Exposure (ms):,0.635,,,,,,Exposure (ms):,0.635,,,,,,,
Digital Resolution:,228,,,,,,Digital Resolution:,228,,,,,,,
Num Repeats:,20,,,,,,Num Repeats:,20,,,,,,,
PGA Gain:,64,(FixedPGA),,,,,PGA Gain:,64,(AutoPGA),,,,,,
System Temp (C):,39,,,,,,System Temp (C):,38.57,,,,,,,
Humidity (%):,44.07,,,,,,Humidity (%):,43.42,,,,,,,
Lamp ADC:,3083,3085,851,854,,,Lamp ADC:,3083,3085,851,853,,,,
Data Date-Time:,2025/04/03T11:01:13,,,,,,Data Date-Time:,2025/04/03T10:57:31,,,,,,,
Total Measurement Time in sec:,6.4642985,,,,,,,,,,,,,,
,,,,,,,,,,,,,,,
***General Information***,,,,,,,***Calibration Coefficients***,,,,,,,,
Model Name:,NIR-S-G1,,,,,,Shift Vector Coefficients:,-2.27453457587495,0.0384893477179632,-0.000120883834660424,,,,,
Serial Number:,C23R004,(95UB125GC0VC23R004),,,,,Pixel to Wavelength Coefficients:,1773.06832862561,-0.918144602406657,-0.000240533803363975,,,,,
GUI Version:,3.13.1,Revision:,930,,,,Versions (Cal/Ref/Cfg):,1,3,1,,,,,
TIVA Version:,2.4.10,,,,,,***Lamp Usage ***,,,,,,,,
DLPC Version:,2.3.1,,,,,,Total Time(hh:mm:ss):,8min 43sec ,,,,,,,
UUID:,DE:67:0C:88:67:66:73:21,,,,,,***Device/Error/Activation Status***,,,,,,,,
Main Board Version:,F,,,,,,Device Status:,0x00000001,Activation Status:,Activated,,,,,
Detector Board Version:,C,,,,,,Error status:,0x00000000,Error Code:,0x00000000000000000000000000000000,,,,,
,,,,,,,,,Error Details:,Not found,,,,,
***Scan Data***,,,,,,,,,,,,,,,
Wavelength (nm),Absorbance (AU),Reference Signal (unitless),Sample Signal (unitless)
900.860912737931,0.22458064342147,117797,70235
904.749703961815,0.220585662757326,126691,76236
909.9280239805,0.216823576606095,138167,83865
913.806712784643,0.21714249560442,149328,90573
917.681071980326,0.213844008383422,162057,99043
921.551101567548,0.213445036794465,178074,108932
925.41680154631,0.21213251587115,196998,120873
929.278171916611,0.209990439975393,218333,134626
933.135212678451,0.209968202164558,240719,148437
936.987923831831,0.207584986248021,262473,162742
942.118137089843,0.206251471367637,288404,179370
945.960745823482,0.205307729118124,305439,190378
949.79902494866,0.203834700110003,320802,200633
953.632974465377,0.202320717246312,335296,210430
957.462594373634,0.202344285165334,349128,219099
961.287884673431,0.20041822739833,361634,227956
965.108845364766,0.199775029153036,374188,236219
970.196724673387,0.199088752659948,390879,247146
974.007582944981,0.198490197669944,402393,254777
977.814111608115,0.197503160664225,413276,262263
981.616310662789,0.196844272266742,423569,269203
985.414180109002,0.19594627097714,433120,275843
989.207719946754,0.195483744381842,441739,281632
992.996930176046,0.194835553584979,449669,287116
996.781810796877,0.194070391088328,456560,292030
1001.82158334482,0.193179419354214,464895,297972
1005.59636154591,0.193033791285307,470368,301581
1009.36681013854,0.192453492655245,474732,304786
1013.13292912271,0.191932087798608,478828,307785
1016.89471849842,0.191930906136164,481725,309648
1020.65217826567,0.191163667063305,483712,311475
1024.40530842446,0.191289390863315,485668,312644
1028.15410897478,0.190962127664097,487362,313971
1033.14577476206,0.190429006346301,488316,314972
1036.88447289264,0.189688729721397,488868,315866
1040.61884141477,0.189619776769493,489332,316216
1044.34888032843,0.189358369514428,489418,316462
1048.07458963364,0.18892695831595,488260,316027
1051.79596933038,0.188913818766659,487000,315221
1055.51301941866,0.188793711875265,485466,314315
1059.22573989848,0.188079888920558,484183,314000
1064.16929892509,0.188041720251235,483516,313595
1067.87191698517,0.187476282489756,484128,314401
1071.57020543679,0.187205995773919,485141,315255
1075.26416427995,0.187212402276393,486467,316112
1078.95379351464,0.186957118754931,487916,317240
1082.63909314088,0.186675719885415,490239,318957
1086.32006315866,0.186771394680175,492693,320483
1091.22128823587,0.18651936834528,495772,322673
1094.89215583391,0.186418173898851,499423,325125
1098.55869382348,0.186541062030242,503504,327689
1102.2209022046,0.185914136508904,506704,330248
1105.87878097725,0.186239324627091,510870,332714
1109.53233014145,0.186031217681456,514525,335255
1113.18154969718,0.185739352045873,518693,338198
1116.82643964446,0.185585200340037,522374,340719
1121.67955796099,0.185994570912728,527607,343808
1125.31434548853,0.185835758000736,531849,346699
1128.9448034076,0.18579091973756,535661,349220
1132.57093171821,0.186396464465284,540144,351652
1136.19273042036,0.18644336778638,544582,354503
1139.81019951405,0.186859361335643,548702,356843
1143.42333899928,0.187095399157318,553245,359602
1147.03214887605,0.187476113543012,557452,362019
1151.83716043191,0.187946650808107,563504,365553
1155.43586788894,0.188075457022441,568001,368361
1159.03024573751,0.188885925723977,572714,370725
1162.62029397761,0.189339549473784,577539,373458
1166.20601260926,0.189778243195681,583129,376692
1169.78740163244,0.189738160910046,587999,379873
1173.36446104717,0.189964491117508,593108,382974
1176.93719085343,0.190595748361301,599444,386503
1181.69409564862,0.191174337161672,607109,390924
1185.25672303515,0.191630840596558,613509,394630
1188.81502081321,0.191516648412582,619933,398867
1192.36898898281,0.191924092678491,626887,402963
1195.91862754395,0.191588330193298,633990,407844
1199.46393649663,0.191897723333184,640924,412011
1203.00491584085,0.191839683702055,648382,416861
1206.54156557661,0.191915839206979,655882,421609
1211.25036361113,0.191569513190133,665679,428248
1214.77691092715,0.19132255215002,673278,433383
1218.29912863471,0.190942869972308,681014,438746
1221.8170167338,0.190579104535766,688572,443987
1225.33057522444,0.189955431865946,696213,449559
1228.83980410662,0.189425543825044,703101,454561
1232.34470338033,0.189004450865557,709755,459308
1237.01116746546,0.188613757548474,718184,465181
1240.50596431943,0.188414881873845,724264,469334
1243.99643156495,0.187895824044814,730563,473982
1247.482569202,0.187609171749535,738049,479155
1250.96437723059,0.187628058624773,746832,484836
1254.44185565073,0.187372178669445,755241,490584
1257.9150044624,0.187247324928994,763170,495877
1261.38382366561,0.187278662673186,771244,501087
1266.00218099006,0.187294412568099,781306,507606
1269.46089777353,0.187115003161181,786916,511462
1272.91528494854,0.187052917517266,793403,515752
1276.36534251509,0.187300865154364,799582,519472
1279.81107047318,0.186864950833971,805092,523577
1283.2524688228,0.186995287510098,810268,526785
1286.68953756397,0.186790393332223,814352,529690
1290.12227669668,0.186640878474518,818939,532857
1294.69252726046,0.186556564148722,823777,536109
1298.11516397342,0.186676930313136,826815,537937
1301.53347107793,0.186546467388611,829755,540012
1304.94744857397,0.186624663865735,832245,541535
1308.35709646156,0.186850576561739,834577,542770
1311.76241474068,0.187325203800983,836250,543264
1315.16340341134,0.187093942014173,837631,544451
1318.56006247354,0.187488086247613,838892,544776
1323.08220627665,0.18766878567561,839959,545242
1326.46876291911,0.187994124165283,839739,544691
1329.85098995311,0.188564823926289,839988,544137
1333.22888737865,0.188727659111011,839710,543753
1336.60245519573,0.189241088243904,839134,542738
1339.97169340435,0.190046969954436,838256,541165
1343.33660200451,0.190560906639225,836851,539619
1347.81641185822,0.191405414889576,834457,537030
1351.17121803864,0.192270610375015,831676,534175
1354.52169461059,0.192669655447401,827407,530945
1357.86784157409,0.193631015588033,824274,527765
1361.20965892912,0.194498690169942,821586,524994
1364.5471466757,0.195172039980164,818759,522377
1367.88030481381,0.196022102551408,817205,520366
1371.20913334347,0.196572785362137,815770,518794
1375.64083643651,0.197577361936378,812228,515348
1378.95956254642,0.198212780811508,807170,511390
1382.27395904787,0.199319944915224,801706,506635
1385.58402594086,0.200526229842519,796654,502046
1388.88976322539,0.202004668096955,791427,497057
1392.19117090146,0.203853658959007,784127,490380
1395.48824896907,0.205859894333129,776834,483580
1398.78099742822,0.208112362325955,770807,477346
1403.16459376059,0.212200326375378,764688,469120
1406.4472398,0.215680470876392,761075,463177
1409.72555623094,0.21973631116355,758558,457354
1412.99954305343,0.22343535670575,756497,452243
1416.26920026746,0.227418505239037,754378,446859
1419.53452787302,0.231366583950823,752618,441782
1422.79552587013,0.234790356728393,751011,437377
1426.05219425877,0.237976325394398,750177,433698
1430.38768383047,0.241710776983699,749143,429392
1433.63424979937,0.24373548508569,748309,426919
1436.87648615981,0.245546047577852,747364,424606
1440.11439291179,0.246719191784454,746950,423226
1443.34797005532,0.24756975248266,746119,421928
1446.57721759038,0.248161319980608,744556,420471
1449.80213551698,0.248631384498941,743423,419377
1453.02272383511,0.248713908738059,741887,418431
1457.31010664614,0.249206010532766,739139,416409
1460.52059254454,0.249735306015783,737108,414759
1463.72674883448,0.249703156964179,734267,413191
1466.92857551595,0.249406270853209,731002,411635
1470.12607258897,0.249433631323706,727624,409707
1473.31924005352,0.249067666985926,724156,408098
1476.50807790962,0.24888443990302,720837,406399
1480.75312677125,0.248049441846112,715625,404237
1483.93186220761,0.247997265040156,711397,401897
1487.1062680355,0.247477956271066,707071,399931
1490.27634425493,0.246903578833709,702584,397919
1493.44209086591,0.246409248494304,697679,395591
1496.60350786842,0.24575742455594,692563,393280
1499.76059526247,0.245023352381914,687255,390926
1502.91335304806,0.244846318691562,682304,388268
1507.11029514902,0.243957385154134,674592,384666
1510.25295051487,0.24222923118231,668685,382818
1513.39127627226,0.241255724053508,662693,380239
1516.52527242119,0.240310517319742,655343,376841
1519.65493896165,0.239260786175528,649455,374359
1522.78027589366,0.23896664680554,642755,370748
1525.90128321721,0.237987742916502,635546,367417
1529.01796093229,0.237242215207764,628552,363998
1533.16679627258,0.236298116585661,618210,358788
1536.27337156793,0.235700992361267,610440,354766
1539.37561725481,0.235305124719743,602624,350543
1542.47353333323,0.23461251636876,594515,346378
1545.5671198032,0.233984419613449,585897,341851
1548.6563766647,0.233385809262396,577169,337223
1551.74130391774,0.233446025147392,569000,332404
1554.82190156232,0.233080703819715,559804,327307
1558.92263014194,0.232374259124247,547334,320537
1561.99312536678,0.231911950504972,538078,315452
1565.05929098316,0.231695988363545,528570,310032
1568.12112699108,0.231211182691734,518980,304747
1571.17863339054,0.230682783017651,509528,299561
1574.23181018153,0.230469174636394,499638,293891
1577.28065736407,0.230108942480069,489825,288358
1580.32517493815,0.229931347748824,480600,283043
1584.37779675709,0.22955222328026,467328,275467
1587.41221191143,0.228348124547283,457230,270263
1590.4422974573,0.227596159578928,447336,264873
1593.46805339471,0.226898108823653,436966,259149
1596.48947972367,0.226605542028972,427608,253770
1599.50657644416,0.225320638833404,417585,248556
1602.5193435562,0.22491929986161,408028,243092
1606.52963142574,0.2237841028042,395301,236126
1609.53229611804,0.223067840848926,385641,230736
1612.53063120187,0.221957374660957,375869,225465
1615.52463667724,0.221077570525855,366477,220277
1618.51431254415,0.221121369500383,356747,214407
1621.4996588026,0.220113221190135,346886,208965
1624.48067545259,0.219990168891849,337242,203213
1627.45736249411,0.218680389633361,327684,198050
1631.41954360299,0.218139027928374,315011,190628
1634.38612822478,0.218442020154383,305815,184934
1637.3483832381,0.218019592400779,296524,179490
1640.30630864297,0.217627850162103,287654,174278
1643.25990443938,0.217990756717835,279131,168973
1646.20917062732,0.217773944359651,270401,163770
1649.15410720681,0.217930756530418,261890,158558
1652.09471417783,0.218573863476425,253263,153108
1656.00878852603,0.218295035985654,241309,145975
1658.93929307732,0.218942556183505,232691,140552
1661.86546802014,0.219859792867925,223227,134551
1664.7873133545,0.221016615187297,213602,128407
1667.7048290804,0.220221294399679,202430,121914
1670.61801519784,0.221977216731476,190468,114247
1673.52687170682,0.221449692351066,176949,106267
1676.43139860734,0.223517660918603,162085,96878
1680.29736619487,0.225105629932029,140629,83747
1683.19179067565,0.224737129419542,123705,73731
1686.08188554796,0.226248955844394,107896,64085
1688.96765081182,0.226993175255126,92904,55086
1691.84908646722,0.231418341921351,79518,46671
1694.72619251415,0.229076235109693,67599,39890
1697.59896895263,0.229485956237205,57979,34181
1701.42260259077,0.231101748435524,47801,28076
