***Scan Config Information***,,,,,,,***Reference Scan Information***,,,,,,,,
Scan Config Name:,FolHerbario,,,,,,Scan Config Name:,Local New Reference,,,,,,,
Scan Config Type:,Slew,Num Section:,1,,,,Scan Config Type:,Slew,Num Section:,1,,,,,
Section Config Type:,Column,,,,,,Section Config Type:,Column,,,,,,,
Start Wavelength (nm):,900,,,,,,Start Wavelength (nm):,900,,,,,,,
End Wavelength (nm):,1700,,,,,,End Wavelength (nm):,1700,,,,,,,
Pattern Width (nm):,7.03,,,,,,Pattern Width (nm):,7.03,,,,,,,
Exposure (ms):,0.635,,,,,,Exposure (ms):,0.635,,,,,,,
Digital Resolution:,228,,,,,,Digital Resolution:,228,,,,,,,
Num Repeats:,20,,,,,,Num Repeats:,20,,,,,,,
PGA Gain:,64,(FixedPGA),,,,,PGA Gain:,64,(AutoPGA),,,,,,
System Temp (C):,38.93,,,,,,System Temp (C):,38.87,,,,,,,
Humidity (%):,45.42,,,,,,Humidity (%):,45.29,,,,,,,
Lamp ADC:,3083,3086,851,854,,,Lamp ADC:,3083,3085,852,854,,,,
Data Date-Time:,2025/04/03T10:26:42,,,,,,Data Date-Time:,2025/04/03T10:23:50,,,,,,,
Total Measurement Time in sec:,6.4597163,,,,,,,,,,,,,,
,,,,,,,,,,,,,,,
***General Information***,,,,,,,***Calibration Coefficients***,,,,,,,,
Model Name:,NIR-S-G1,,,,,,Shift Vector Coefficients:,-2.27453457587495,0.0384893477179632,-0.000120883834660424,,,,,
Serial Number:,C23R004,(95UB125GC0VC23R004),,,,,Pixel to Wavelength Coefficients:,1773.06832862561,-0.918144602406657,-0.000240533803363975,,,,,
GUI Version:,3.13.1,Revision:,930,,,,Versions (Cal/Ref/Cfg):,1,3,1,,,,,
TIVA Version:,2.4.10,,,,,,***Lamp Usage ***,,,,,,,,
DLPC Version:,2.3.1,,,,,,Total Time(hh:mm:ss):,6min 43sec ,,,,,,,
UUID:,DE:67:0C:88:67:66:73:21,,,,,,***Device/Error/Activation Status***,,,,,,,,
Main Board Version:,F,,,,,,Device Status:,0x00000001,Activation Status:,Activated,,,,,
Detector Board Version:,C,,,,,,Error status:,0x00000000,Error Code:,0x00000000000000000000000000000000,,,,,
,,,,,,,,,Error Details:,Not found,,,,,
***Scan Data***,,,,,,,,,,,,,,,
Wavelength (nm),Absorbance (AU),Reference Signal (unitless),Sample Signal (unitless)
900.860912737931,0.220037043328538,118093,71152
904.749703961815,0.216496819714143,126806,77027
909.9280239805,0.217998644788395,138842,84047
913.806712784643,0.215323209134983,149679,91167
917.681071980326,0.214131100334305,162824,99446
921.551101567548,0.212550291538473,178732,109560
925.41680154631,0.211682618659811,197499,121306
929.278171916611,0.210845929847762,219030,134790
933.135212678451,0.209258851341505,241419,149112
936.987923831831,0.208535043921972,263106,162778
942.118137089843,0.206966530182452,289393,179689
945.960745823482,0.205284267174975,306207,190867
949.79902494866,0.204953523182936,321676,200662
953.632974465377,0.203289255570701,335936,210362
957.462594373634,0.202112794668311,349364,219364
961.287884673431,0.200598651913498,362235,228240
965.108845364766,0.200022419294161,375162,236699
970.196724673387,0.198776871044143,391406,247657
974.007582944981,0.197809513605016,402843,255462
977.814111608115,0.197444221414924,414170,262866
981.616310662789,0.196231327946883,424249,270016
985.414180109002,0.19521615506646,434018,276880
989.207719946754,0.193979529649733,442364,283009
992.996930176046,0.193535939613719,450449,288476
996.781810796877,0.192401353030324,457257,293602
1001.82158334482,0.191264711662739,466115,300074
1005.59636154591,0.190609024978582,470969,303657
1009.36681013854,0.189521298515431,475410,307289
1013.13292912271,0.188663691789116,479339,310441
1016.89471849842,0.187801592750137,482056,312821
1020.65217826567,0.187320349519347,484573,314803
1024.40530842446,0.186324556751818,486203,316587
1028.15410897478,0.186038162715801,487959,317940
1033.14577476206,0.18516714878944,489020,319271
1036.88447289264,0.18450699808818,489568,320115
1040.61884141477,0.183818467397127,490156,321008
1044.34888032843,0.183408805837,490121,321288
1048.07458963364,0.182810484803371,488910,320936
1051.79596933038,0.181897040231256,487524,320700
1055.51301941866,0.181598463503198,485884,319841
1059.22573989848,0.18105088156594,485117,319739
1064.16929892509,0.180104971238441,484437,319987
1067.87191698517,0.179483211368325,484843,320714
1071.57020543679,0.178556223368882,485802,322035
1075.26416427995,0.178123358003054,487345,323380
1078.95379351464,0.177590208930758,488752,324712
1082.63909314088,0.177409591379824,490932,326296
1086.32006315866,0.17656288537994,493380,328563
1091.22128823587,0.176262281691412,496550,330903
1094.89215583391,0.176041805219164,500535,333728
1098.55869382348,0.175174494434081,503985,336700
1102.2209022046,0.174786349800026,507779,339538
1105.87878097725,0.174464295003788,511690,342407
1109.53233014145,0.173860698060366,515413,345378
1113.18154969718,0.173788935918774,519625,348258
1116.82643964446,0.173063551094382,523377,351359
1121.67955796099,0.172710352997111,528649,355187
1125.31434548853,0.172557766834448,532845,358132
1128.9448034076,0.172446905322501,536981,361004
1132.57093171821,0.172181962735367,541134,364018
1136.19273042036,0.17243949836527,545776,366923
1139.81019951405,0.1721840286392,549665,369755
1143.42333899928,0.172114195215405,554101,372799
1147.03214887605,0.172322735357193,558800,375780
1151.83716043191,0.172486124156393,564681,379592
1155.43586788894,0.172496876106909,569265,382664
1159.03024573751,0.172698160085321,573851,385568
1162.62029397761,0.172994037928725,579005,388766
1166.20601260926,0.173186944629313,584440,392241
1169.78740163244,0.17304464810896,589368,395678
1173.36446104717,0.173226479818743,594799,399157
1176.93719085343,0.1734535283765,600862,403015
1181.69409564862,0.173370861498887,608329,408101
1185.25672303515,0.173365454203378,614901,412515
1188.81502081321,0.173231633526769,621532,417092
1192.36898898281,0.173049496994291,628299,421810
1195.91862754395,0.173170154978467,635524,426542
1199.46393649663,0.172891781232584,642389,431426
1203.00491584085,0.172404259716696,650088,437087
1206.54156557661,0.172253469883992,657222,442037
1211.25036361113,0.17200714512393,667575,449255
1214.77691092715,0.171383933971207,674988,454896
1218.29912863471,0.171018009192576,682378,460264
1221.8170167338,0.17099636020682,690139,465522
1225.33057522444,0.169992385644841,697803,471781
1228.83980410662,0.169546378792448,704479,476784
1232.34470338033,0.169349750115229,711199,481550
1237.01116746546,0.168663261326392,719507,487946
1240.50596431943,0.168432155944534,725516,492283
1243.99643156495,0.167979302774792,731887,497124
1247.482569202,0.167657385519806,739361,502573
1250.96437723059,0.167572320064683,748237,508706
1254.44185565073,0.167159006509911,756464,514789
1257.9150044624,0.166753940270261,764491,520737
1261.38382366561,0.166698775121743,772714,526405
1266.00218099006,0.166197654614647,782321,533565
1269.46089777353,0.16639012077824,788258,537376
1272.91528494854,0.166312123616812,795140,542165
1276.36534251509,0.165565309138047,800636,546852
1279.81107047318,0.165799026615853,806487,550552
1283.2524688228,0.165463951316594,811335,554289
1286.68953756397,0.165495140464623,816202,557574
1290.12227669668,0.165246515981685,820456,560801
1294.69252726046,0.165051948509635,825391,564427
1298.11516397342,0.164736807557299,828276,566811
1301.53347107793,0.164771915426522,831371,568883
1304.94744857397,0.164823789978209,833879,570531
1308.35709646156,0.164696965070442,835931,572102
1311.76241474068,0.164615733701669,837592,573346
1315.16340341134,0.164544461262474,839238,574567
1318.56006247354,0.16477125627697,840448,575095
1323.08220627665,0.164942027126661,841530,575609
1326.46876291911,0.165218759351688,841648,575323
1329.85098995311,0.16521824193016,841568,575269
1333.22888737865,0.165204647809468,841410,575179
1336.60245519573,0.165945811391637,841162,574029
1339.97169340435,0.166204142742775,839947,572859
1343.33660200451,0.166590327468443,838738,571526
1347.81641185822,0.167132834078181,836254,569122
1351.17121803864,0.167634929200701,833273,566438
1354.52169461059,0.168066101007623,828776,562822
1357.86784157409,0.168552893264846,825992,560303
1361.20965892912,0.169146194333796,822821,557390
1364.5471466757,0.169374251978473,820122,555270
1367.88030481381,0.169674669681241,818372,553702
1371.20913334347,0.170227911827134,817589,552468
1375.64083643651,0.17042997884889,813701,549585
1378.95956254642,0.171219990928659,808846,545313
1382.27395904787,0.171868537199716,803226,540716
1385.58402594086,0.172488141700261,798464,536744
1388.88976322539,0.173561719628261,793036,531779
1392.19117090146,0.174536088806664,785821,525760
1395.48824896907,0.175976918706979,778541,519164
1398.78099742822,0.177501924391542,772455,513300
1403.16459376059,0.180081597059792,766345,506224
1406.4472398,0.18264054767348,763004,501056
1409.72555623094,0.185022250419601,760181,496472
1412.99954305343,0.187873269276855,758377,492053
1416.26920026746,0.190403604996759,756533,488005
1419.53452787302,0.192839963855199,754656,484071
1422.79552587013,0.195286931407887,753323,480501
1426.05219425877,0.197365173687905,752250,477526
1430.38768383047,0.199702280519251,751092,474232
1433.63424979937,0.200978427106488,750173,472262
1436.87648615981,0.20205427316132,749360,470583
1440.11439291179,0.202621135355826,748875,469665
1443.34797005532,0.203094254631285,748028,468623
1446.57721759038,0.203269929183563,746515,467486
1449.80213551698,0.203616836269469,745336,466375
1453.02272383511,0.20418873503552,744177,465037
1457.31010664614,0.204492196823633,741227,462870
1460.52059254454,0.20429118731702,738832,461588
1463.72674883448,0.204349528162204,736173,459865
1466.92857551595,0.204417990816047,732994,457807
1470.12607258897,0.204215463679577,729658,455936
1473.31924005352,0.204036751215075,726264,454002
1476.50807790962,0.203742293224345,722955,452240
1480.75312677125,0.203093447719076,717775,449671
1483.93186220761,0.202847347427016,713680,447359
1487.1062680355,0.202308748678333,709126,445056
1490.27634425493,0.201793118336371,704481,442666
1493.44209086591,0.201527065659167,699601,439869
1496.60350786842,0.200738048365605,694613,437527
1499.76059526247,0.200577738195984,689356,434376
1502.91335304806,0.199882811347853,683952,431661
1507.11029514902,0.199033544155389,676439,427755
1510.25295051487,0.198125215911347,670443,424851
1513.39127627226,0.197508320728723,664403,421622
1516.52527242119,0.196664542842539,657269,417906
1519.65493896165,0.196069796597359,651298,414677
1522.78027589366,0.195549810453079,644661,410943
1525.90128321721,0.194512382461761,637226,407175
1529.01796093229,0.193985299757157,630282,403227
1533.16679627258,0.19315634734489,619955,397378
1536.27337156793,0.1925068239505,612073,392913
1539.37561725481,0.192295646965244,604118,387995
1542.47353333323,0.191828924132176,595879,383115
1545.5671198032,0.191616055792949,587357,377821
1548.6563766647,0.190823777911709,578852,373030
1551.74130391774,0.190677121559117,570404,367710
1554.82190156232,0.18964996160389,560825,362391
1558.92263014194,0.189076026552054,548632,354981
1561.99312536678,0.188668176601594,539288,349263
1565.05929098316,0.188404924190889,530011,343463
1568.12112699108,0.188022330594694,520474,337580
1571.17863339054,0.187980072899991,511078,331518
1574.23181018153,0.187488838534309,501264,325520
1577.28065736407,0.186593299297742,491068,319557
1580.32517493815,0.186301599473646,481581,313594
1584.37779675709,0.186059834759173,468666,305354
1587.41221191143,0.185769615103552,458397,298863
1590.4422974573,0.184599603908819,448261,293043
1593.46805339471,0.184108677303166,438402,286922
1596.48947972367,0.184221529791259,428895,280627
1599.50657644416,0.182578235983845,418493,274859
1602.5193435562,0.182377695485484,409024,268764
1606.52963142574,0.181404551167262,396389,261046
1609.53229611804,0.180671706552386,386410,254904
1612.53063120187,0.180219483766692,376775,248807
1615.52463667724,0.179450951567697,367240,242940
1618.51431254415,0.179387898257355,357707,236668
1621.4996588026,0.178728914447633,347728,230415
1624.48067545259,0.177909330838755,338000,224392
1627.45736249411,0.176941971420958,328322,218453
1631.41954360299,0.17777758486979,315840,209744
1634.38612822478,0.176817677374273,306359,203898
1637.3483832381,0.176402623717793,297201,197992
1640.30630864297,0.176702732855037,288206,191867
1643.25990443938,0.176153469537292,279262,186148
1646.20917062732,0.176927494861695,271099,180385
1649.15410720681,0.176475555299449,262300,174712
1652.09471417783,0.176421979074375,253540,168898
1656.00878852603,0.176724396564763,241627,160850
1658.93929307732,0.177735247392138,233308,154951
1661.86546802014,0.177390465629287,223631,148642
1664.7873133545,0.178362659726827,213939,141882
1667.7048290804,0.178585595105223,202900,134492
1670.61801519784,0.178247827549823,190880,126623
1673.52687170682,0.179743689535086,177796,117538
1676.43139860734,0.179025787330649,162825,107819
1680.29736619487,0.179323271691677,141145,93399
1683.19179067565,0.180318557527486,124400,82130
1686.08188554796,0.1803481646194,108417,71573
1688.96765081182,0.180477552805321,93094,61439
1691.84908646722,0.180254242855426,79666,52604
1694.72619251415,0.182840058726266,68225,44782
1697.59896895263,0.180782292314411,58315,38459
1701.42260259077,0.184081061178481,47973,31399
