***Scan Config Information***,,,,,,,***Reference Scan Information***,,,,,,,,
Scan Config Name:,FolHerbario,,,,,,Scan Config Name:,Local New Reference,,,,,,,
Scan Config Type:,Slew,Num Section:,1,,,,Scan Config Type:,Slew,Num Section:,1,,,,,
Section Config Type:,Column,,,,,,Section Config Type:,Column,,,,,,,
Start Wavelength (nm):,900,,,,,,Start Wavelength (nm):,900,,,,,,,
End Wavelength (nm):,1700,,,,,,End Wavelength (nm):,1700,,,,,,,
Pattern Width (nm):,7.03,,,,,,Pattern Width (nm):,7.03,,,,,,,
Exposure (ms):,0.635,,,,,,Exposure (ms):,0.635,,,,,,,
Digital Resolution:,228,,,,,,Digital Resolution:,228,,,,,,,
Num Repeats:,20,,,,,,Num Repeats:,20,,,,,,,
PGA Gain:,64,(FixedPGA),,,,,PGA Gain:,64,(AutoPGA),,,,,,
System Temp (C):,40.63,,,,,,System Temp (C):,41,,,,,,,
Humidity (%):,40.18,,,,,,Humidity (%):,40.91,,,,,,,
Lamp ADC:,3083,3086,851,853,,,Lamp ADC:,3083,3085,851,854,,,,
Data Date-Time:,2025/04/03T11:47:29,,,,,,Data Date-Time:,2025/04/03T11:42:37,,,,,,,
Total Measurement Time in sec:,6.4740833,,,,,,,,,,,,,,
,,,,,,,,,,,,,,,
***General Information***,,,,,,,***Calibration Coefficients***,,,,,,,,
Model Name:,NIR-S-G1,,,,,,Shift Vector Coefficients:,-2.27453457587495,0.0384893477179632,-0.000120883834660424,,,,,
Serial Number:,C23R004,(95UB125GC0VC23R004),,,,,Pixel to Wavelength Coefficients:,1773.06832862561,-0.918144602406657,-0.000240533803363975,,,,,
GUI Version:,3.13.1,Revision:,930,,,,Versions (Cal/Ref/Cfg):,1,3,1,,,,,
TIVA Version:,2.4.10,,,,,,***Lamp Usage ***,,,,,,,,
DLPC Version:,2.3.1,,,,,,Total Time(hh:mm:ss):,14min 5sec ,,,,,,,
UUID:,DE:67:0C:88:67:66:73:21,,,,,,***Device/Error/Activation Status***,,,,,,,,
Main Board Version:,F,,,,,,Device Status:,0x00000001,Activation Status:,Activated,,,,,
Detector Board Version:,C,,,,,,Error status:,0x00000000,Error Code:,0x00000000000000000000000000000000,,,,,
,,,,,,,,,Error Details:,Not found,,,,,
***Scan Data***,,,,,,,,,,,,,,,
Wavelength (nm),Absorbance (AU),Reference Signal (unitless),Sample Signal (unitless)
900.860912737931,0.281035505998903,117775,61662
904.749703961815,0.281615552853715,126975,66390
909.9280239805,0.280038182953778,138785,72829
913.806712784643,0.278450926541554,149460,78718
917.681071980326,0.277608344527749,162278,85635
921.551101567548,0.273694814816533,177512,94522
925.41680154631,0.272921416195201,196447,104791
929.278171916611,0.271111865639467,217030,116254
933.135212678451,0.271077894607663,239492,128296
936.987923831831,0.269054257604152,261658,140825
942.118137089843,0.268631823729034,288215,155269
945.960745823482,0.267299019338069,305915,165311
949.79902494866,0.265791438996165,321240,174196
953.632974465377,0.265205385987122,336144,182524
957.462594373634,0.264185953088483,350139,190570
961.287884673431,0.263344092683715,363161,198041
965.108845364766,0.26208974401986,375840,205548
970.196724673387,0.261516737856481,392336,214853
974.007582944981,0.260772224232209,403998,221619
977.814111608115,0.259999591726071,415168,228152
981.616310662789,0.259254104612185,425528,234247
985.414180109002,0.258470792259692,435175,239990
989.207719946754,0.257844690782383,443645,245014
992.996930176046,0.257161016474997,451623,249813
996.781810796877,0.256673789361983,458748,254039
1001.82158334482,0.256156916706579,467567,259231
1005.59636154591,0.255610435222732,472866,262499
1009.36681013854,0.254717667617688,477324,265519
1013.13292912271,0.254506630704995,481347,267887
1016.89471849842,0.253604324843582,484083,269970
1020.65217826567,0.253053323584176,486245,271520
1024.40530842446,0.252611735865394,488361,272979
1028.15410897478,0.252248875087655,490091,274175
1033.14577476206,0.251892418828139,490932,274871
1036.88447289264,0.251461152507828,491617,275528
1040.61884141477,0.250432132252799,491947,276367
1044.34888032843,0.250394714607395,491853,276338
1048.07458963364,0.250215151939456,491059,276006
1051.79596933038,0.25000988345348,489511,275266
1055.51301941866,0.248989398760945,488041,275085
1059.22573989848,0.248183190059723,486787,274888
1064.16929892509,0.247784621157006,486114,274760
1067.87191698517,0.247793679728187,486800,275142
1071.57020543679,0.247794689165963,487753,275680
1075.26416427995,0.246928347884011,488997,276935
1078.95379351464,0.246651181326021,490342,277874
1082.63909314088,0.246233376893491,492462,279344
1086.32006315866,0.245364282392854,495130,281420
1091.22128823587,0.24591324408761,498256,282839
1094.89215583391,0.244914656859246,501829,285523
1098.55869382348,0.245077769193785,505643,287585
1102.2209022046,0.244427733431347,509116,289994
1105.87878097725,0.244835267178004,512931,291893
1109.53233014145,0.244501347083346,517139,294514
1113.18154969718,0.244061007625562,521002,297015
1116.82643964446,0.244411341673563,524923,299009
1121.67955796099,0.244202394252204,529989,302040
1125.31434548853,0.244625391303775,534287,304193
1128.9448034076,0.244362028362082,538448,306748
1132.57093171821,0.244816357136512,542540,308756
1136.19273042036,0.244715709596977,547010,311372
1139.81019951405,0.24497014757563,551145,313542
1143.42333899928,0.245660805613371,556061,315836
1147.03214887605,0.245821885587474,559862,317877
1151.83716043191,0.24640652050103,566191,321038
1155.43586788894,0.24674632665409,570759,323375
1159.03024573751,0.247218594203254,575216,325546
1162.62029397761,0.24738911484379,580142,328205
1166.20601260926,0.247879518505062,585356,330781
1169.78740163244,0.248704580164293,590492,333050
1173.36446104717,0.24921823148077,596035,335779
1176.93719085343,0.24928254456768,602076,339132
1181.69409564862,0.249888715953133,609486,342827
1185.25672303515,0.250097216547499,616125,346395
1188.81502081321,0.250125150529507,622659,350046
1192.36898898281,0.250275098419779,629650,353854
1195.91862754395,0.250417506507934,636875,357797
1199.46393649663,0.250008827601967,643720,361983
1203.00491584085,0.249960847917833,651181,366219
1206.54156557661,0.249768645193574,658818,370678
1211.25036361113,0.24931085782254,668608,376583
1214.77691092715,0.248158036354112,675854,381676
1218.29912863471,0.248043908969886,683995,386375
1221.8170167338,0.246937376359045,691403,391556
1225.33057522444,0.24653026094548,699006,396233
1228.83980410662,0.245214915372892,705767,401279
1232.34470338033,0.244966044559189,712603,405398
1237.01116746546,0.243984061136147,720850,411018
1240.50596431943,0.243675161465124,727183,414924
1243.99643156495,0.243263219818814,733590,418977
1247.482569202,0.242572706838941,740861,423803
1250.96437723059,0.242497225060007,749959,429082
1254.44185565073,0.242193068810018,758139,434066
1257.9150044624,0.241602286436554,766133,439240
1261.38382366561,0.241761984946008,774579,443919
1266.00218099006,0.241426838379034,784134,449742
1269.46089777353,0.241056546901621,789744,453346
1272.91528494854,0.241310998448064,796630,457031
1276.36534251509,0.240808088530084,802418,460885
1279.81107047318,0.2406114285892,808297,464472
1283.2524688228,0.240322542192818,813182,467590
1286.68953756397,0.239839727328203,817483,470586
1290.12227669668,0.239726549184941,821874,473237
1294.69252726046,0.23984774937003,826938,476020
1298.11516397342,0.23971341457967,830001,477931
1301.53347107793,0.239463884221044,833124,480005
1304.94744857397,0.239622536188513,835696,481311
1308.35709646156,0.239625946089916,837517,482356
1311.76241474068,0.23951201634744,838962,483315
1315.16340341134,0.239324159290498,840716,484535
1318.56006247354,0.239473875481788,841931,485068
1323.08220627665,0.239766551343924,842575,485112
1326.46876291911,0.240073680108282,843072,485055
1329.85098995311,0.240272940007476,843052,484821
1333.22888737865,0.240474044080031,843058,484600
1336.60245519573,0.240937949572236,842416,483714
1339.97169340435,0.241662276645112,841277,482255
1343.33660200451,0.242210128765918,840070,480956
1347.81641185822,0.243218525870725,837590,478424
1351.17121803864,0.243953014194954,834613,475918
1354.52169461059,0.244596050065298,830284,472749
1357.86784157409,0.245249187982473,827131,470246
1361.20965892912,0.245817869994278,824134,467929
1364.5471466757,0.246651875442699,821656,465627
1367.88030481381,0.247383124289449,819988,463900
1371.20913334347,0.247970024491279,818518,462443
1375.64083643651,0.249037380940985,815147,459408
1378.95956254642,0.250092439572021,810337,455589
1382.27395904787,0.250817830995278,804574,451594
1385.58402594086,0.252280658710088,799709,447354
1388.88976322539,0.253488952811073,794270,443077
1392.19117090146,0.255023110974879,786886,437410
1395.48824896907,0.257042370505112,779597,431348
1398.78099742822,0.259613786940692,773709,425563
1403.16459376059,0.263382233734348,767651,418583
1406.4472398,0.266425502342695,763610,413472
1409.72555623094,0.270154816406659,761189,408637
1412.99954305343,0.274052122042714,759337,404001
1416.26920026746,0.277583582639147,757275,399641
1419.53452787302,0.281202031931526,755622,395460
1422.79552587013,0.284494221812351,754229,391750
1426.05219425877,0.287514677010498,753287,388549
1430.38768383047,0.290457395013797,751936,385233
1433.63424979937,0.292185031390664,751151,383303
1436.87648615981,0.293628825492244,750355,381626
1440.11439291179,0.294241384046636,749770,380791
1443.34797005532,0.294690120214119,748852,379932
1446.57721759038,0.294743635895758,747249,379072
1449.80213551698,0.295279933181882,746321,378134
1453.02272383511,0.295135898730727,745014,377597
1457.31010664614,0.295329309851023,741854,375828
1460.52059254454,0.294937895898162,739182,374812
1463.72674883448,0.294715539933572,736799,373795
1466.92857551595,0.29450840398498,733782,372442
1470.12607258897,0.29420547117963,730514,371042
1473.31924005352,0.29367850515331,726942,369676
1476.50807790962,0.293327675034312,723449,368197
1480.75312677125,0.29247859112429,718414,366350
1483.93186220761,0.29181414710919,714085,364700
1487.1062680355,0.291866043820937,709825,362481
1490.27634425493,0.291112427519363,705535,360916
1493.44209086591,0.290185303089119,700449,359080
1496.60350786842,0.289182771313659,695288,357258
1499.76059526247,0.288536423948493,689868,355001
1502.91335304806,0.288232432094168,684680,352578
1507.11029514902,0.286932041548983,676964,349650
1510.25295051487,0.285550026647442,670905,347625
1513.39127627226,0.284992923704581,664939,344976
1516.52527242119,0.284364109743024,658326,342040
1519.65493896165,0.282823885122013,651870,339889
1522.78027589366,0.282350992234772,645235,336796
1525.90128321721,0.281564598174985,638084,333667
1529.01796093229,0.280762153431947,630859,330499
1533.16679627258,0.2799723507086,620731,325785
1536.27337156793,0.279580258538683,612682,321851
1539.37561725481,0.279022976635635,604611,318019
1542.47353333323,0.278538859290707,596664,314189
1545.5671198032,0.278105627024263,588027,309950
1548.6563766647,0.277265402783393,579360,305973
1551.74130391774,0.277264844658594,570901,301506
1554.82190156232,0.276453769561858,561605,297151
1558.92263014194,0.276263349198465,549223,290727
1561.99312536678,0.276001565339209,540026,286031
1565.05929098316,0.275759765083144,530519,281152
1568.12112699108,0.275321452921974,521028,276401
1571.17863339054,0.274800605685957,511513,271679
1574.23181018153,0.274220306907811,501517,266726
1577.28065736407,0.274472014964058,491750,261380
1580.32517493815,0.273844846086351,482346,256752
1584.37779675709,0.273413788038787,469111,249955
1587.41221191143,0.272917310777504,459020,244858
1590.4422974573,0.271882091125467,449070,240122
1593.46805339471,0.271342593586083,438809,234927
1596.48947972367,0.271501151791941,429464,229840
1599.50657644416,0.270895560291988,419131,224623
1602.5193435562,0.270484259245468,409680,219766
1606.52963142574,0.269478008587317,397039,213479
1609.53229611804,0.268935453929957,387538,208631
1612.53063120187,0.268374342626425,377736,203617
1615.52463667724,0.267328523816522,367898,198792
1618.51431254415,0.267600630608457,358425,193552
1621.4996588026,0.267052438593623,348546,188455
1624.48067545259,0.267216517871602,338905,183173
1627.45736249411,0.266557870738023,329596,178412
1631.41954360299,0.267044260188947,316812,171300
1634.38612822478,0.265908069604341,307095,166481
1637.3483832381,0.266072862438838,298330,161668
1640.30630864297,0.266253224224275,289301,156710
1643.25990443938,0.266537092154766,280298,151734
1646.20917062732,0.265769559479865,271752,147368
1649.15410720681,0.266666585256493,263058,142359
1652.09471417783,0.266503834353625,254505,137782
1656.00878852603,0.268218229929768,243211,131149
1658.93929307732,0.269090519366946,234868,126396
1661.86546802014,0.269949380369458,225681,121212
1664.7873133545,0.271726418331918,216726,115927
1667.7048290804,0.272685178327983,206188,110047
1670.61801519784,0.273124323970954,195466,104219
1673.52687170682,0.277531576900752,183407,96802
1676.43139860734,0.277899433419492,169805,89547
1680.29736619487,0.281933187086969,149756,78244
1683.19179067565,0.282765161791885,133657,69699
1686.08188554796,0.285789264275597,117482,60839
1688.96765081182,0.286770411348784,101711,52553
1691.84908646722,0.288841379360496,87377,44932
1694.72619251415,0.29143336656981,74699,38184
1697.59896895263,0.289743058496853,63882,32782
1701.42260259077,0.29367482935088,52283,26588
