***Scan Config Information***,,,,,,,***Reference Scan Information***,,,,,,,,
Scan Config Name:,FolHerbario,,,,,,Scan Config Name:,Local New Reference,,,,,,,
Scan Config Type:,Slew,Num Section:,1,,,,Scan Config Type:,Slew,Num Section:,1,,,,,
Section Config Type:,Column,,,,,,Section Config Type:,Column,,,,,,,
Start Wavelength (nm):,900,,,,,,Start Wavelength (nm):,900,,,,,,,
End Wavelength (nm):,1700,,,,,,End Wavelength (nm):,1700,,,,,,,
Pattern Width (nm):,7.03,,,,,,Pattern Width (nm):,7.03,,,,,,,
Exposure (ms):,0.635,,,,,,Exposure (ms):,0.635,,,,,,,
Digital Resolution:,228,,,,,,Digital Resolution:,228,,,,,,,
Num Repeats:,20,,,,,,Num Repeats:,20,,,,,,,
PGA Gain:,64,(FixedPGA),,,,,PGA Gain:,64,(AutoPGA),,,,,,
System Temp (C):,39.74,,,,,,System Temp (C):,39.52,,,,,,,
Humidity (%):,44.98,,,,,,Humidity (%):,45.08,,,,,,,
Lamp ADC:,3069,3082,845,843,,,Lamp ADC:,3068,3082,845,843,,,,
Data Date-Time:,2025/04/03T11:03:32,,,,,,Data Date-Time:,2025/04/03T10:59:18,,,,,,,
Total Measurement Time in sec:,6.4985089,,,,,,,,,,,,,,
,,,,,,,,,,,,,,,
***General Information***,,,,,,,***Calibration Coefficients***,,,,,,,,
Model Name:,NIR-S-G1,,,,,,Shift Vector Coefficients:,-4.78706677830951,0.0420606707536571,-9.21439965724389E-05,,,,,
Serial Number:,C23R001,(95UB125GC0VC23R001),,,,,Pixel to Wavelength Coefficients:,1777.69850932213,-0.910890781979712,-0.000240535926235214,,,,,
GUI Version:,3.13.1,Revision:,930,,,,Versions (Cal/Ref/Cfg):,1,3,1,,,,,
TIVA Version:,2.4.10,,,,,,***Lamp Usage ***,,,,,,,,
DLPC Version:,2.3.1,,,,,,Total Time(hh:mm:ss):,6min 48sec ,,,,,,,
UUID:,DE:67:0C:88:67:3E:75:21,,,,,,***Device/Error/Activation Status***,,,,,,,,
Main Board Version:,F,,,,,,Device Status:,0x00000001,Activation Status:,Activated,,,,,
Detector Board Version:,C,,,,,,Error status:,0x00000000,Error Code:,0x00000000000000000000000000000000,,,,,
,,,,,,,,,Error Details:,Not found,,,,,
***Scan Data***,,,,,,,,,,,,,,,
Wavelength (nm),Absorbance (AU),Reference Signal (unitless),Sample Signal (unitless)
900.868887283122,0.31373357754743,105143,51056
904.747472781646,0.309048777463228,113258,55593
909.912185107076,0.302656837277147,124367,61951
913.780668096698,0.299612710369918,134608,67524
917.644821439648,0.296696272016605,147277,74377
921.504645135925,0.294487621688179,162797,82634
925.36013918553,0.290630012137685,181384,92890
929.211303588463,0.287320865807352,202339,104414
933.058138344724,0.284791236238021,224678,116619
938.180516347137,0.280492381610697,252222,132218
942.017248594496,0.276882765355069,270254,142853
945.849651195182,0.273264473181875,287608,153298
949.677724149196,0.270930561672098,303701,162748
953.501467456539,0.267365051109462,318958,172333
957.320881117208,0.265640315828798,334005,181181
961.135965131206,0.262600128524801,349066,190681
966.216008810601,0.259635278538837,369171,203045
970.020990315697,0.258064411947615,384177,212064
973.821642174121,0.255733243638894,398179,220976
977.617964385872,0.253367683231645,411862,229818
981.409956950951,0.251688831142277,424917,238021
985.197619869358,0.249642830789982,436278,245539
988.980953141092,0.247789497070902,446467,252348
994.01866249747,0.2457863044397,458378,260278
997.791893260303,0.243375494494161,465755,265939
1001.56079437646,0.24129810536009,472237,270933
1005.32536584595,0.239794306563261,477794,275072
1009.08560766877,0.237720734127201,482554,279142
1012.84151984491,0.236602578410417,485948,281830
1016.59310237438,0.235213267397711,487995,283924
1021.58847740774,0.233103209032667,489834,286382
1025.32995742831,0.231191917621604,490830,288230
1029.06710780221,0.230572826374461,491129,288817
1032.79992852944,0.228375115964558,489770,289479
1036.52841960999,0.227217609288191,488463,289477
1040.25258104387,0.225931289843719,487227,289601
1043.97241283108,0.224566847188329,486715,290207
1047.68791497161,0.222821858461036,486412,291194
1052.63518281973,0.222307205226491,485589,291046
1056.34058245136,0.220860938841263,485704,292086
1060.04165243632,0.219979181550196,487701,293883
1063.73839277461,0.218773537953462,490473,296375
1067.43080346623,0.217950119837994,492015,297871
1071.11888451118,0.217005182522453,490527,297617
1074.80263590945,0.215789022605276,486187,295811
1079.70756943455,0.214450863268131,481039,293582
1083.38121832392,0.213976140950587,480448,293542
1087.05053756662,0.213041279979799,480728,294346
1090.71552716264,0.211954614333966,481045,295278
1094.376187112,0.211249696833008,483051,296991
1098.03251741468,0.210600218896429,485155,298731
1101.68451807069,0.209758781988773,487260,300609
1106.54711727277,0.209066598855576,490703,303216
1110.18901541988,0.208641987833124,493132,305015
1113.82658392031,0.208355240931584,496319,307189
1117.45982277408,0.207680227197113,498539,309043
1121.08873198117,0.207479627542563,500829,310606
1124.71331154159,0.207160373102295,502902,312121
1128.33356145534,0.207071971426119,506218,314243
1133.1538263344,0.207063530916044,509678,316397
1136.76397373924,0.206587380246436,512172,318294
1140.36979149742,0.206732716738445,514473,319617
1143.97127960892,0.206698132530872,517738,321671
1147.56843807374,0.20638342606719,520525,323637
1151.1612668919,0.206725825633188,523218,325055
1154.74976606338,0.207070690460784,526522,326848
1159.52769661943,0.207241106822645,529934,328837
1163.10609328201,0.207474540027707,533297,330746
1166.68016029792,0.208307616788561,536867,332322
1170.24989766716,0.208034058567789,540147,334563
1173.81530538972,0.20867160768028,544842,336976
1177.37638346562,0.208898580235831,549493,339675
1180.93313189484,0.209242735134167,553526,341897
1185.66872812787,0.20986868642682,560988,346007
1189.21537404818,0.209583489808619,566417,349585
1192.75769032183,0.209131354605729,571962,353375
1196.29567694881,0.209200206402504,578099,357110
1199.82933392911,0.208777438849637,584819,361613
1203.35866126274,0.208535440476145,591728,366089
1206.8836589497,0.208200633928231,598372,370485
1211.57692085971,0.206903104274907,607619,377336
1215.09181603776,0.206521470915853,615519,382578
1218.60238156915,0.205515304127231,622878,388050
1222.10861745386,0.204739078784622,630394,393435
1225.6105236919,0.203952890716873,637705,398719
1229.10810028326,0.203113912413095,645123,404137
1232.60134722796,0.202134507920957,651697,409177
1236.09026452598,0.201406278822318,658956,414429
1240.73541925074,0.200508306675551,671571,423237
1244.21423403986,0.199787458218557,682929,431110
1247.68871918231,0.199511025714591,694515,438703
1251.15887467809,0.199097289894886,705741,446219
1254.62470052719,0.198530792426226,716805,453806
1258.08619672962,0.198331716612215,727604,460854
1261.54336328538,0.197735612644491,737477,467749
1266.14618368713,0.197484877687865,750182,476082
1269.59324773399,0.197187985059512,759100,482071
1273.03598213417,0.196773348784381,768329,488398
1276.47438688769,0.196307753457167,776229,493949
1279.90846199453,0.195883520796511,783145,498837
1283.3382074547,0.195884049426605,790195,503327
1286.76362326819,0.19565172790703,796893,507865
1291.32410934692,0.194985643109731,803911,513124
1294.73942265151,0.194746492283037,808631,516421
1298.15040630944,0.194589127443342,813397,519653
1301.55706032069,0.194324085119005,817966,522891
1304.95938468526,0.194475627972226,821461,524942
1308.35737940317,0.194187624977484,823883,526839
1311.7510444744,0.194194406743592,826373,528423
1316.26919623011,0.194412689016186,829162,529940
1319.65275879245,0.19448960024987,829891,530312
1323.03199170811,0.19470798129198,830537,530458
1326.40689497709,0.194682836634894,831004,530787
1329.77746859941,0.195150052930927,830781,530074
1333.14371257505,0.195494380549623,830091,529214
1336.50562690402,0.196277438550975,829298,527756
1340.98144433671,0.197509165747163,827791,525305
1344.33325615678,0.198176870003811,825542,523073
1347.68073833018,0.199447592549224,822842,519839
1351.0238908569,0.200468959421585,819523,516526
1354.36271373695,0.201349150376963,814971,512617
1357.69720697033,0.202454567028358,811114,508894
1361.02737055704,0.203510342507781,806416,504718
1365.46085366672,0.204874156069187,802171,500487
1368.78091474452,0.206000756275758,800504,498153
1372.09664617566,0.206885939948425,798379,495819
1375.40804796012,0.208018676356584,794347,492030
1378.71512009791,0.208405550811929,788076,487711
1382.01786258902,0.209443754740954,781985,482786
1385.31627543347,0.210838124314204,776479,477850
1388.61035863124,0.212083645611783,769624,472275
1392.99573455567,0.214896401975841,758331,462341
1396.27971524454,0.217361455290485,748544,453791
1399.55936628673,0.219826586367275,739152,445561
1402.83468768226,0.223583976388117,732449,437717
1406.10567943111,0.228060877557983,728388,430826
1409.3723415333,0.232857693027961,725197,424227
1412.6346739888,0.238403488107672,722880,417506
1416.97771559022,0.246202565693009,720928,408968
1420.22994553682,0.251810205616042,719631,402995
1423.47784583676,0.257464569740658,719050,397461
1426.72141649002,0.262596179132781,718180,392317
1429.96065749661,0.266664173574755,717394,388234
1433.19556885653,0.270554849128705,717119,384624
1436.42615056978,0.273505497331419,716380,381626
1440.72685784817,0.276563919703442,716072,378785
1443.94733705251,0.278134032667936,715313,377018
1447.16348661018,0.279250108957349,714074,375399
1450.37530652118,0.28049001523365,712886,373706
1453.58279678551,0.280760705585193,711645,372823
1456.78595740317,0.281169922155003,709492,371345
1459.98478837415,0.280912376716954,707139,370333
1464.24316132953,0.281490613762441,703586,367982
1467.43188979161,0.280976543031521,700567,366837
1470.61628860702,0.280631108221236,697577,365562
1473.79635777575,0.280247483042167,694229,364129
1476.97209729782,0.279480158342064,690851,362998
1480.14350717321,0.278286378354164,687106,362024
1483.31058740193,0.277843189248738,683965,360737
1487.52662603429,0.276578328380102,678866,359092
1490.68360375411,0.275460204804458,674737,357828
1493.83625182725,0.274586887108245,670523,356309
1496.98457025372,0.273685060125302,666379,354843
1500.12855903353,0.272288761978886,661404,353328
1503.26821816666,0.271309825760792,657498,352034
1506.40354765311,0.270090668702176,652863,350535
1510.57725196245,0.26902965492151,646666,348057
1513.70247894001,0.267757167094037,641371,346220
1516.82337627089,0.266795255353636,635697,343918
1519.9399439551,0.265406424588665,631016,342479
1523.05218199264,0.264683445389668,625469,340034
1526.16009038351,0.263946950265353,619767,337506
1529.2636691277,0.263155041025161,614061,335009
1532.36291822522,0.262248382663041,607635,332196
1536.48851534932,0.261675552999481,599054,327937
1539.57766193794,0.261466797450559,592445,324475
1542.66247887988,0.260865055724901,585677,321213
1545.74296617516,0.260222052358765,578624,317815
1548.81912382376,0.25971444495949,571276,314146
1551.89095182569,0.259490850842877,563848,310221
1554.95845018095,0.258874392485153,556242,306471
1559.04171298203,0.259041400174091,545954,300687
1562.09910882838,0.258476654700437,537964,296672
1565.15217502807,0.258620945236249,530049,292210
1568.20091158108,0.258054200991075,521597,287926
1571.24531848742,0.257365185526699,513170,283724
1574.28539574709,0.257134936951821,504624,279147
1577.32114336008,0.257146273675878,495817,274268
1581.36207183814,0.256314080383472,484253,268385
1584.38771694224,0.255693196266011,475311,263806
1587.40903239966,0.25511138019784,466216,259105
1590.42601821041,0.253731512446954,456933,254754
1593.43867437448,0.253550475122279,447572,249639
1596.44700089189,0.252312540169495,438641,245356
1599.45099776262,0.251463144096204,429355,240632
1603.44959191766,0.250786929881446,416897,234014
1606.44348627949,0.249513880457554,407536,229431
1609.43305099465,0.248642025358001,398183,224616
1612.41828606314,0.247953341211098,388837,219692
1615.39919148495,0.247795579862429,379354,214412
1618.37576726009,0.247111975224955,370045,209480
1621.34801338856,0.24642793068647,360831,204586
1625.30427322059,0.245491615976017,348222,197863
1628.26641684016,0.245789416941264,339259,192638
1631.22423081305,0.246021163990401,329969,187263
1634.17771513927,0.245690683725717,320439,181993
1637.12686981883,0.246049034215575,311764,176920
1640.0716948517,0.246622854150115,302542,171460
1643.01219023791,0.246266035386071,293309,166364
1646.92611574692,0.246972771029474,281042,159147
1649.85650862422,0.247271283804025,272396,154145
1652.78257185485,0.249048558345428,263635,148578
1655.70430543881,0.250440568016184,254682,143073
1658.6217093761,0.250608755096218,246338,138332
1661.53478366672,0.252515395164853,237098,132560
1664.44352831066,0.254024881577596,227885,126967
1668.31511949665,0.255894612158225,214471,118980
1671.21376163169,0.255373496157583,202999,112751
1674.10807412006,0.257354545462115,190733,105456
1676.99805696176,0.25849406464709,176687,97434
1679.88371015678,0.260620836234866,160873,88280
1682.76503370514,0.258388158260146,143445,79122
1685.64202760682,0.258779888392981,126089,69486
1688.51469186182,0.260972644981178,109239,59897
1692.33817586257,0.263729266158512,89224,48613
1695.20073760867,0.266096368749658,75751,41048
1698.05896970811,0.262433570058164,64450,35220
1700.91287216087,0.264779436119791,55208,30007
