***Scan Config Information***,,,,,,,***Reference Scan Information***,,,,,,,,
Scan Config Name:,FolHerbario,,,,,,Scan Config Name:,Local New Reference,,,,,,,
Scan Config Type:,Slew,Num Section:,1,,,,Scan Config Type:,Slew,Num Section:,1,,,,,
Section Config Type:,Column,,,,,,Section Config Type:,Column,,,,,,,
Start Wavelength (nm):,900,,,,,,Start Wavelength (nm):,900,,,,,,,
End Wavelength (nm):,1700,,,,,,End Wavelength (nm):,1700,,,,,,,
Pattern Width (nm):,7.03,,,,,,Pattern Width (nm):,7.03,,,,,,,
Exposure (ms):,0.635,,,,,,Exposure (ms):,0.635,,,,,,,
Digital Resolution:,228,,,,,,Digital Resolution:,228,,,,,,,
Num Repeats:,20,,,,,,Num Repeats:,20,,,,,,,
PGA Gain:,64,(FixedPGA),,,,,PGA Gain:,64,(AutoPGA),,,,,,
System Temp (C):,40.58,,,,,,System Temp (C):,40.76,,,,,,,
Humidity (%):,43.75,,,,,,Humidity (%):,44.2,,,,,,,
Lamp ADC:,3066,3082,829,852,,,Lamp ADC:,3066,3082,829,851,,,,
Data Date-Time:,2025/04/03T11:04:53,,,,,,Data Date-Time:,2025/04/03T11:02:43,,,,,,,
Total Measurement Time in sec:,6.5003949,,,,,,,,,,,,,,
,,,,,,,,,,,,,,,
***General Information***,,,,,,,***Calibration Coefficients***,,,,,,,,
Model Name:,NIR-S-G1,,,,,,Shift Vector Coefficients:,0.392694521123758,0.0064508848494657,-3.36963000867986E-05,,,,,
Serial Number:,C23R003,(95UB125GC0VC23R003),,,,,Pixel to Wavelength Coefficients:,1737.96619343203,-0.927679554192883,-0.000240514673521399,,,,,
GUI Version:,3.13.1,Revision:,930,,,,Versions (Cal/Ref/Cfg):,1,3,1,,,,,
TIVA Version:,2.4.10,,,,,,***Lamp Usage ***,,,,,,,,
DLPC Version:,2.3.1,,,,,,Total Time(hh:mm:ss):,10min 40sec ,,,,,,,
UUID:,DE:67:0C:88:67:47:5F:21,,,,,,***Device/Error/Activation Status***,,,,,,,,
Main Board Version:,F,,,,,,Device Status:,0x00000001,Activation Status:,Activated,,,,,
Detector Board Version:,C,,,,,,Error status:,0x00000000,Error Code:,0x00000000000000000000000000000000,,,,,
,,,,,,,,,Error Details:,Not found,,,,,
***Scan Data***,,,,,,,,,,,,,,,
Wavelength (nm),Absorbance (AU),Reference Signal (unitless),Sample Signal (unitless)
901.114121469303,0.472761457065679,104070,35040
904.983805426851,0.469407389947788,112441,38152
908.849160120276,0.468967265043416,120300,40860
913.996231967317,0.468732353891557,132076,44884
917.851485044454,0.465628042873887,143228,49023
921.702408857468,0.464593579934588,156700,53762
925.549003406358,0.466778588785694,172858,59008
929.391268691125,0.464399093690466,191273,65653
933.229204711769,0.463530104787503,211264,72660
937.062811468289,0.462954496750045,231226,79631
942.16755273279,0.463448676387611,256792,88335
945.991057873023,0.461346421594699,274556,94904
949.810233749132,0.462451532935313,291251,100419
953.625080361117,0.46167535871994,307688,106276
957.435597708979,0.461270788438625,323718,111917
961.241785792718,0.462003317509145,338760,116920
966.309968826844,0.460790857916404,358604,124115
970.106055294295,0.459784514905292,372040,129064
973.897812497622,0.46069204981435,384393,133071
977.685240436826,0.459803771591639,395323,137135
981.468339111907,0.460321151639304,405460,140484
985.247108522864,0.45926447192178,413282,143543
989.021548669698,0.459487742171189,419685,145692
994.047401121285,0.458493770546096,425698,148118
997.811739651831,0.458410613712874,429671,149529
1001.57174891825,0.458650889139806,432965,150592
1005.32742892055,0.457938012384492,434511,151378
1009.07877965873,0.458183247256228,435641,151686
1012.82580113278,0.457939483246248,437291,152346
1016.56849334271,0.45697768144542,437664,152814
1021.55201521176,0.457638932826553,437740,152608
1025.2846058054,0.456989235734172,437352,152701
1029.01286713492,0.457113036958842,436749,152447
1032.73679920031,0.456410597661843,435637,152305
1036.45640200158,0.455983626430487,434686,152122
1040.17167553873,0.456202680742124,434871,152110
1045.1186391774,0.456327384206692,435748,152373
1048.82381109826,0.454890911770288,435244,152701
1052.524653755,0.454766434056908,435219,152736
1056.22116714761,0.455714380496963,436744,152937
1059.9133512761,0.454649184772934,437691,153645
1063.60120614046,0.454331470314957,438316,153977
1067.28473174071,0.453499939297332,438597,154371
1072.18936479684,0.453678896762839,440793,155080
1075.86278878079,0.453758571242754,442301,155582
1079.53188350063,0.453822034560827,444990,156505
1083.19664895633,0.453220281176812,447270,157525
1086.85708514792,0.452178229862485,448991,158511
1090.51319207538,0.452661169403823,450415,158837
1094.16496973872,0.451876900745192,452031,159695
1099.02727221231,0.451089910537168,454185,160747
1102.66894825936,0.450965730426321,456329,161552
1106.30629504229,0.449786173923129,458128,162630
1109.93931256109,0.449791375439688,460435,163447
1113.56800081577,0.44992107298263,462855,164257
1117.19235980633,0.44997723904851,465316,165109
1120.81238953276,0.449400099820173,467369,166058
1125.63236142381,0.44862972933189,470710,167542
1129.24228953396,0.44842672779969,473360,168564
1132.84788837998,0.448689457104291,475678,169287
1136.44915796188,0.449027456267601,478807,170268
1140.04609827965,0.448819146746636,481984,171480
1143.6387093333,0.447946153407045,485033,172912
1148.42212299398,0.448913227189227,489620,174159
1152.00463243134,0.448313870690302,493476,175773
1155.58281260458,0.448505615971088,497334,177069
1159.1566635137,0.448916747903936,502053,178580
1162.72618515869,0.448811093457553,506175,180090
1166.29137753957,0.449225394188796,511227,181714
1169.85224065631,0.448943159094563,516532,183719
1174.59332373445,0.449329205984167,524260,186302
1178.14408523491,0.449190426882841,530197,188472
1181.69051747124,0.450078725762914,536599,190358
1185.23262044346,0.449878783674891,543427,192869
1188.77039415154,0.449099396369836,549574,195401
1192.30383859551,0.449242863905849,557110,198015
1195.83295377535,0.44907596344845,565215,200973
1200.53170627095,0.448595768394627,575364,204808
1204.0507198345,0.448771313910223,583522,207628
1207.56540413393,0.448354453045484,591624,210713
1211.07575916924,0.448739908788008,600091,213539
1214.58178494043,0.447860094835655,608325,216908
1218.08348144749,0.446931375591402,615673,219998
1222.74567571271,0.446443509256597,625895,223902
1226.23727060348,0.446337658174791,632760,226413
1229.72453623013,0.44623512341283,639674,228941
1233.20747259266,0.446275684855288,646591,231395
1236.68607969106,0.446022364253752,656357,235027
1240.16035752534,0.445116257227117,666875,239292
1243.63030609549,0.445414019020085,676672,242641
1248.25016977818,0.445008953080222,690064,247674
1251.71001673204,0.444744500975732,699178,251098
1255.16553442179,0.44456570110271,708245,254459
1258.61672284741,0.444290826104855,716595,257622
1262.06358200891,0.444009839511914,724532,260644
1265.50611190628,0.443634596446799,731794,263484
1268.94431253953,0.443978032021725,738513,265693
1273.52184563968,0.44344819877056,746352,268841
1276.94994465664,0.443533728804942,752394,270964
1280.37371440948,0.443378340578854,757507,272903
1283.79315489819,0.442943091732786,761917,274767
1287.20826612279,0.442859407526007,766073,276319
1290.61904808326,0.442625019293886,770107,277924
1295.16002295302,0.442273632067708,774980,279909
1298.56070329721,0.442417124722235,777377,280682
1301.95705437726,0.442193510581547,779781,281695
1305.3490761932,0.441901238893909,782114,282728
1308.73676874501,0.442083967165965,784123,283335
1312.1201320327,0.441965006130038,785109,283769
1315.49916605626,0.441880708756133,785662,284024
1319.99781034349,0.441768693991445,786195,284290
1323.36674275077,0.4417715171413,786850,284525
1326.73134589392,0.442128280008446,786539,284179
1330.09161977295,0.441788000251299,786017,284213
1333.44756438786,0.442437853363304,785751,283692
1336.79917973864,0.442332044311396,785111,283530
1340.1464658253,0.44269472256004,783184,282598
1344.60277952999,0.443023685497052,780710,281492
1347.93996400036,0.443566906673468,778066,280188
1351.27281920661,0.443884279850467,774961,278866
1354.60134514873,0.444574716923243,769859,276590
1357.92554182674,0.444343510719026,765613,275211
1361.24540924061,0.445257675166286,762225,273417
1364.56094739037,0.446098398076664,759515,271918
1368.97493051252,0.445969895082922,756699,270990
1372.28036704598,0.446400828250357,755052,270132
1375.58147431533,0.44742038389226,752103,268446
1378.87825232055,0.447591158371098,747180,266584
1382.17070106165,0.447779574343708,741470,264432
1385.45882053862,0.449076105412259,736999,262054
1389.83624543039,0.449927371927762,730104,259094
1393.11426329108,0.451139853613639,722724,255760
1396.38795188764,0.452732219066703,714607,251962
1399.65731122008,0.454585727287115,706874,248174
1402.92234128839,0.456724583461868,699859,244504
1406.18304209259,0.459742522431075,694288,240878
1409.43941363266,0.462316643498914,690178,238037
1413.77450794189,0.467085355642668,688309,234800
1417.02077786567,0.470134038325216,687413,232854
1420.26271852533,0.47259792544591,687025,231406
1423.50032992086,0.475727365880371,686844,229684
1426.73361205227,0.478376157261889,686572,228197
1429.96256491956,0.480523126192005,686703,227115
1433.18718852272,0.48280053590653,686274,225786
1437.47995224942,0.483944795522315,684842,224722
1440.69447423629,0.484626254045147,684666,224312
1443.90466695905,0.485917666034061,683466,223254
1447.11053041767,0.486203723682789,682161,222681
1450.31206461218,0.486182192690732,680617,222188
1453.50926954256,0.486570615029907,678810,221400
1457.76547503888,0.485955314515519,675666,220687
1460.95257835298,0.485608452000771,672875,219951
1464.13535240295,0.485817280231124,669636,218787
1467.31379718879,0.484940724404887,666111,218075
1470.48791271052,0.484342067901217,661832,216973
1473.65769896812,0.483436061254836,657491,216000
1476.8231559616,0.482246547908523,652997,215112
1481.03703087538,0.480897406315782,646859,213753
1484.19238625257,0.480438751444871,641811,212309
1487.34341236563,0.479898368921639,636478,210807
1490.49010921458,0.479050753733084,631178,209460
1493.63247679939,0.477799252772107,625669,208231
1496.77051512009,0.476402150851073,619128,206718
1499.90422417666,0.476219451500734,613383,204886
1504.0757685079,0.474781949642653,604890,202719
1507.19937594819,0.473376786700514,597859,201012
1510.31865412435,0.472131473742224,590447,199090
1513.43360303639,0.470774668889904,583458,197349
1516.5442226843,0.470808916413787,575855,194762
1519.65051306809,0.46938534012757,568545,192921
1522.75247418776,0.468150998161678,560625,190775
1526.88168793646,0.466602957647124,550399,187964
1529.97354743984,0.465646941211835,542717,185749
1533.0610776791,0.465138115051426,533986,182975
1536.14427865423,0.464370871890666,526078,180584
1539.22315036524,0.463525307348485,517405,177953
1542.29769281213,0.462629285104801,508812,175359
1546.39034833045,0.462503533010049,497584,171539
1549.45478916105,0.460861063112411,488831,169160
1552.51490072752,0.460174423947577,480061,166388
1555.57068302988,0.459611013714771,471287,163559
1558.6221360681,0.459046752513082,462229,160624
1561.66925984221,0.458030756681976,452869,157740
1564.71205435219,0.457300836171526,443960,154897
1568.76237928798,0.456609382564333,431793,150892
1571.79507218167,0.456094474006522,422681,147883
1574.82343581124,0.454495359354659,413003,145030
1577.84747017669,0.454823482276426,404264,141854
1580.86717527801,0.45354823893595,394844,138956
1583.88255111521,0.454132662748273,386080,135689
1586.89359768829,0.45284649887155,376507,132717
1590.90159204153,0.451461158391368,364627,128940
1593.90253699832,0.451352364148206,355435,125721
1596.89915269099,0.449139095798819,346855,123313
1599.89143911953,0.449284372968687,337666,120006
1602.87939628395,0.449740055736468,328762,116719
1605.86302418424,0.448137725614066,319977,114020
1609.83446030711,0.44788217689312,308040,109831
1612.80798659112,0.44649752580143,299469,107116
1615.777183611,0.446247852343098,290663,104026
1618.74205136676,0.445186520831218,281809,101104
1621.7025898584,0.445025424957405,273393,98121
1624.65879908592,0.445724072321248,264992,94953
1627.61067904931,0.444662876059154,256411,92103
1631.53978458964,0.444113274074768,245585,88326
1634.48156293674,0.444706479198869,237490,85298
1637.41901201972,0.443883668941795,229440,82563
1640.35213183857,0.44423494392057,221549,79659
1643.28092239331,0.444413282732779,213816,76847
1646.20538368392,0.444344792181375,206132,74097
1649.1255157104,0.446259141630675,198850,71165
1653.01229066819,0.444591342844089,188983,67894
1655.92232107839,0.445129829547005,181584,65155
1658.82802222446,0.447712693572742,174248,62152
1661.72939410641,0.449151416279186,166877,59326
1664.62643672424,0.448260196526263,158762,56557
1667.51915007795,0.449065334170297,149700,53230
1671.36936680536,0.450651771380529,138486,49063
1674.25197854278,0.453050633846794,128445,45255
1677.13026101607,0.456560843577958,117779,41163
1680.00421422524,0.453691466010165,105591,37148
1682.87383817029,0.454900150241116,93871,32933
1685.73913285121,0.459864178069979,81878,28399
1688.60009826801,0.456510158055371,70222,24545
1692.40798441288,0.463013525460664,56697,19523
1695.25884821339,0.454799087100699,47912,16813
1698.10538274978,0.456086239811318,40220,14072
1700.94758802205,0.466548043862121,34247,11697
