***Scan Config Information***,,,,,,,***Reference Scan Information***,,,,,,,,
Scan Config Name:,FolHerbario,,,,,,Scan Config Name:,Local New Reference,,,,,,,
Scan Config Type:,Slew,Num Section:,1,,,,Scan Config Type:,Slew,Num Section:,1,,,,,
Section Config Type:,Column,,,,,,Section Config Type:,Column,,,,,,,
Start Wavelength (nm):,900,,,,,,Start Wavelength (nm):,900,,,,,,,
End Wavelength (nm):,1700,,,,,,End Wavelength (nm):,1700,,,,,,,
Pattern Width (nm):,7.03,,,,,,Pattern Width (nm):,7.03,,,,,,,
Exposure (ms):,0.635,,,,,,Exposure (ms):,0.635,,,,,,,
Digital Resolution:,228,,,,,,Digital Resolution:,228,,,,,,,
Num Repeats:,20,,,,,,Num Repeats:,20,,,,,,,
PGA Gain:,64,(FixedPGA),,,,,PGA Gain:,64,(AutoPGA),,,,,,
System Temp (C):,38.9,,,,,,System Temp (C):,38.57,,,,,,,
Humidity (%):,45.54,,,,,,Humidity (%):,46.53,,,,,,,
Lamp ADC:,3077,3079,831,849,,,Lamp ADC:,3077,3078,831,849,,,,
Data Date-Time:,2025/04/03T10:38:31,,,,,,Data Date-Time:,2025/04/03T10:33:28,,,,,,,
Total Measurement Time in sec:,6.4548647,,,,,,,,,,,,,,
,,,,,,,,,,,,,,,
***General Information***,,,,,,,***Calibration Coefficients***,,,,,,,,
Model Name:,NIR-S-G1,,,,,,Shift Vector Coefficients:,-5.74589567087503,0.0468271937173058,-9.53581739805986E-05,,,,,
Serial Number:,C23R002,(95UB125GC0VC23R002),,,,,Pixel to Wavelength Coefficients:,1756.1983651918,-0.919335509971685,-0.000241825006214287,,,,,
GUI Version:,3.13.1,Revision:,930,,,,Versions (Cal/Ref/Cfg):,1,3,1,,,,,
TIVA Version:,2.4.10,,,,,,***Lamp Usage ***,,,,,,,,
DLPC Version:,2.3.1,,,,,,Total Time(hh:mm:ss):,6min 26sec ,,,,,,,
UUID:,DE:67:0C:88:67:76:74:21,,,,,,***Device/Error/Activation Status***,,,,,,,,
Main Board Version:,F,,,,,,Device Status:,0x00000001,Activation Status:,Activated,,,,,
Detector Board Version:,C,,,,,,Error status:,0x00000000,Error Code:,0x00000000000000000000000000000000,,,,,
,,,,,,,,,Error Details:,Not found,,,,,
***Scan Data***,,,,,,,,,,,,,,,
Wavelength (nm),Absorbance (AU),Reference Signal (unitless),Sample Signal (unitless)
901.701099874012,0.236114094264603,91066,52874
905.577788882674,0.233168602604983,98867,57794
909.450125041225,0.229376518832693,106417,62753
913.318108349663,0.227546030869354,115529,68414
917.18173880799,0.224093779939309,126777,75674
921.041016416205,0.220610086514231,140163,84338
926.179948793651,0.218558338841352,162739,98386
930.029069751605,0.21544825820979,183586,111787
933.873837859447,0.213309755749707,206114,126124
937.714253117177,0.211761342841896,227315,139594
941.550315524795,0.209088419191927,245168,151487
945.382025082302,0.207264546235886,260310,161520
949.209381789697,0.204423224312413,273354,170727
954.305752966049,0.201922497228731,288366,181143
958.122953023182,0.200312746654949,298625,188284
961.935800230204,0.198470543878361,307944,194985
965.744294587114,0.196465116314538,317058,201685
969.548436093912,0.194524115591674,325712,208118
973.348224750598,0.192671812730546,334036,214349
977.143660557173,0.190952228332978,342169,220439
982.197470532431,0.189715113658648,353089,228123
985.982749688744,0.187583428414875,360717,234198
989.763675994946,0.186555197300238,368329,239707
993.540249451036,0.184804876484847,375329,245249
997.312470057013,0.183074681697329,381943,250567
1001.08033781288,0.182407087972335,389368,255831
1004.84385271863,0.181478377745412,395492,260411
1009.8551014928,0.179716216213155,403391,266692
1013.60845974829,0.178253074901546,408628,271066
1017.35746515367,0.177237551221756,413133,274696
1021.10211770894,0.175814393724984,417118,278256
1024.8424174141,0.174649687273994,420770,281446
1028.57836426914,0.173430970313077,423886,284327
1032.30995827408,0.172787338896085,426435,286461
1037.27864584715,0.171300135682137,428692,288965
1041.00008320182,0.170093964890935,430922,291276
1044.71716770638,0.16994843387841,433138,292872
1048.42989936083,0.168823671578682,434636,294647
1052.13827816517,0.167826458196516,435963,296226
1055.8423041194,0.166917333349872,437620,297975
1059.54197722351,0.166298673834018,439389,299606
1064.46810359549,0.165161961695371,439671,300584
1068.15762004934,0.163982969329738,438374,300512
1071.84278365308,0.163127500045152,435163,298899
1075.52359440671,0.163112910634103,432260,296915
1079.20005231022,0.162406939432928,430446,296150
1082.87215736363,0.161034987577204,429481,296421
1086.53990956692,0.160607021738642,430504,297420
1091.42347473781,0.159403329344836,431775,299126
1095.08107029084,0.158939720458205,434351,301232
1098.73431299376,0.15801389315844,436662,303481
1102.38320284657,0.157927643979838,440258,306041
1106.02773984926,0.157219056760261,444027,309165
1109.66792400185,0.157228279357584,447887,311846
1113.30375530432,0.156762115812934,452603,315468
1118.14475927411,0.156316104004941,458995,320252
1121.77043392632,0.155849085708973,463630,323834
1125.39175572842,0.155608083320337,469042,327796
1129.00872468041,0.155571281325872,474588,331700
1132.62134078229,0.155024725456947,480170,336024
1136.22960403405,0.155535484639734,486193,339839
1139.83351443571,0.155098153019053,491532,343917
1144.6319572044,0.154862188062971,499160,349444
1148.22571095579,0.155210157181628,505257,353429
1151.81511185707,0.155233784520076,510630,357168
1155.40015990824,0.155232192426068,516098,360994
1158.9808551093,0.155704009986011,521850,364621
1162.55719746024,0.155434269258535,528074,369199
1166.12918696107,0.155743580783886,533198,372516
1170.88506852868,0.155973188370477,541030,377788
1174.44690137925,0.155889280912517,546816,381902
1178.00438137971,0.155989177986709,552795,385989
1181.55750853005,0.156478295749893,558958,389853
1185.10628283029,0.156747461958364,565343,394062
1188.65070428041,0.156576548108193,571769,398698
1192.19077288043,0.156594158172116,578210,403173
1196.90409324693,0.156296406127411,587350,409827
1200.43400519669,0.155946680352341,593864,414706
1203.95956429632,0.156134389064878,600920,419452
1207.48077054585,0.155909773132236,608005,424617
1210.99762394527,0.15561725450636,615294,429997
1214.51012449457,0.155138881177286,622368,435420
1218.01827219376,0.154509320181666,629238,440865
1222.68903135918,0.153387094979905,638610,448589
1226.18702240811,0.152788074040757,645091,453767
1229.68066060693,0.152364185697477,652060,459117
1233.16994595564,0.151958264304731,659743,464961
1236.65487845423,0.151188917434382,667629,471353
1240.13545810271,0.151062022672744,677547,478495
1243.61168490109,0.150733430925891,687505,485895
1248.23988286541,0.150271399054887,700152,495360
1251.70595301352,0.149743516393285,707807,501385
1255.16767031152,0.149504646351454,715010,506766
1258.6250347594,0.149306022940493,722245,512128
1262.07804635718,0.14911889966577,729150,517247
1265.52670510484,0.148833835263576,735087,521801
1268.97101100239,0.148742014314947,741364,526368
1273.55664776562,0.148348352588201,749732,532792
1276.99079701291,0.148445425692992,755462,536744
1280.42059341009,0.148254662917277,760527,540580
1283.84603695715,0.147945873487555,765721,544659
1287.26712765411,0.147779279916302,771296,548835
1290.68386550095,0.147565124136295,776377,552723
1294.09625049768,0.147183416301169,780750,556325
1298.63932605982,0.147208203174192,787412,561040
1302.04155440629,0.14736885766507,792213,564252
1305.43942990264,0.146977181691545,796285,567664
1308.83295254889,0.147215512146402,800280,570199
1312.22212234502,0.147053212099154,804218,573219
1315.60693929105,0.146888930301036,808002,576134
1320.11325745224,0.146928264685067,811886,578851
1323.487917748,0.147023284918679,813980,580217
1326.85822519365,0.147064141762805,816481,581945
1330.22417978919,0.14748721126698,819080,583229
1333.58578153461,0.147948403902501,820985,583965
1336.94303042993,0.148002324346436,821984,584603
1340.29592647513,0.148487824906886,823565,585073
1344.75968343522,0.148850413673423,824529,585269
1348.10242283016,0.149662532603615,824260,583985
1351.44080937499,0.150227084352239,823078,582390
1354.77484306971,0.150563585599272,820883,580387
1358.10452391432,0.151175212567602,819142,578341
1361.42985190881,0.151787683831186,817562,576412
1364.75082705319,0.152306572191701,816770,575166
1369.17202281219,0.152912776436826,817261,574709
1372.48284130632,0.153638270831269,817240,573735
1375.78930695032,0.154328446081387,815130,571345
1379.09141974422,0.154832874274814,811768,568328
1382.38917968801,0.155636007095295,808192,564779
1385.68258678168,0.156483090689875,805394,561727
1388.97164102524,0.157835389238108,802216,557771
1393.35027558315,0.159650994142086,796641,551584
1396.62917317645,0.161328607426961,793152,547051
1399.90371791964,0.163308684707278,790716,542890
1403.17390981272,0.165330192739155,789547,539570
1406.43974885568,0.168262388209454,790155,536352
1409.70123504853,0.170964776486054,791049,533628
1412.95836839128,0.174156612927971,791332,529910
1417.29444174809,0.178181575987146,791304,525003
1420.54141844057,0.181204783881998,791395,521421
1423.78404228294,0.184080485719818,791707,518184
1427.0223132752,0.186503608490335,790538,514540
1430.25623141734,0.188962795348329,790041,511313
1433.48579670937,0.190591060982052,789077,508778
1436.71100915129,0.192359136710663,788325,506228
1441.00452130702,0.19395348569871,787009,503531
1444.21957709868,0.194700475028356,785364,501615
1447.43028004022,0.195103440797462,783302,499834
1450.63663013166,0.195576757808734,781224,497965
1453.83862737298,0.195929753705205,778405,495765
1457.0362717642,0.19628072440026,775472,493498
1460.2295633053,0.19676763607345,772354,490963
1464.48051425993,0.196797253988606,767377,487766
1467.66364915076,0.196495875370469,763562,485678
1470.84243119149,0.196374510177081,759039,482936
1474.01686038211,0.19621683575827,755032,480561
1477.18693672261,0.19560528100248,749906,477971
1480.35266021301,0.195599748392284,744912,474794
1483.51403085329,0.195070333227814,739117,471675
1487.72242060682,0.194565634488732,731846,467578
1490.87363459684,0.194277412098534,725692,463954
1494.02049573675,0.193726564553614,719592,460638
1497.16300402654,0.193455820656792,713453,456993
1500.30115946623,0.192726421926029,707153,453719
1503.4349620558,0.19228526779348,700109,449656
1506.56441179526,0.191805172370872,692948,445549
1510.7302403477,0.190805338442283,683714,440625
1513.8495334369,0.190185781507692,676106,436344
1516.96447367598,0.189926106799703,667366,430961
1520.07506106496,0.189183370046985,659082,426340
1523.18129560382,0.188615944643784,651487,421978
1526.28317729258,0.188393028939187,643573,417066
1529.38070613122,0.187863950733743,634883,411936
1533.50397348256,0.187372196149307,623536,405032
1536.59134567094,0.186992178708243,614574,399560
1539.67436500921,0.186629363710911,605685,394110
1542.75303149736,0.186323994160013,596659,388510
1545.82734513541,0.186038609509636,587278,382653
1548.89730592334,0.185974360378754,577941,376625
1551.96291386116,0.185550073950249,568272,370686
1556.04362001141,0.185487910477234,554751,361918
1559.09907129897,0.185089182370318,545029,355902
1562.15016973641,0.184673487250009,534641,349453
1565.19691532375,0.184760259586187,524763,342928
1568.23930806097,0.184716788158561,514338,336149
1571.27734794808,0.184700204340786,504416,329677
1574.31103498508,0.184695894217455,494293,323064
1578.34917993424,0.184279788371457,480749,314513
1581.37271032098,0.184358639084393,470665,307860
1584.39188785761,0.18441492056929,460691,301297
1587.40671254412,0.183326980662772,450195,295171
1590.41718438052,0.183278680066925,439883,288442
1593.42330336681,0.183168743752728,429090,281436
1596.42506950299,0.182470197271272,419287,275449
1600.42065325106,0.181767313536406,405366,266735
1603.41226273698,0.181334149791209,395054,260209
1606.39951937278,0.18114282431432,385195,253827
1609.38242315848,0.180753742294994,375386,247585
1612.36097409406,0.180565123565931,365563,241211
1615.33517217953,0.180169718808173,355567,234829
1618.30501741489,0.179919099218579,346146,228739
1622.25803996186,0.180124074330793,333769,220456
1625.21772854696,0.179360058222029,324001,214381
1628.17306428194,0.179633305684084,314797,208160
1631.12404716682,0.179352918772831,305328,202029
1634.07067720158,0.179074717292519,296226,196132
1637.01295438623,0.179417700925577,287019,189886
1639.95087872077,0.178688109588603,277441,183858
1643.86134006665,0.178977930918046,264915,175440
1646.78910775092,0.179459948231923,255737,169174
1649.71252258509,0.179617076951267,246363,162914
1652.63158456914,0.180409982435635,237596,156830
1655.54629370308,0.180143948506411,228622,150999
1658.45664998691,0.180402321380827,219641,144981
1661.36265342063,0.181533388300958,210716,138728
1665.23055356542,0.182044235041909,197705,130009
1668.12640034887,0.182876847049905,187448,123028
1671.01789428222,0.183527211560244,176306,115542
1673.90503536545,0.184644209285218,163605,106943
1676.78782359857,0.184016520633811,149449,97831
1679.66625898158,0.184988926704997,134818,88056
1682.54034151448,0.18388861525756,119648,78346
1686.36568045817,0.18839144310833,99875,64724
1689.22960634081,0.187100284758741,85715,55713
1692.08917937333,0.187762595345163,72955,47347
1694.94439955575,0.19048063510665,61829,39876
1697.79526688805,0.191829790235403,52809,33953
1700.64178137024,0.194083950936075,44957,28755
