***Scan Config Information***,,,,,,,***Reference Scan Information***,,,,,,,,
Scan Config Name:,FolHerbario,,,,,,Scan Config Name:,Local New Reference,,,,,,,
Scan Config Type:,Slew,Num Section:,1,,,,Scan Config Type:,Slew,Num Section:,1,,,,,
Section Config Type:,Column,,,,,,Section Config Type:,Column,,,,,,,
Start Wavelength (nm):,900,,,,,,Start Wavelength (nm):,900,,,,,,,
End Wavelength (nm):,1700,,,,,,End Wavelength (nm):,1700,,,,,,,
Pattern Width (nm):,7.03,,,,,,Pattern Width (nm):,7.03,,,,,,,
Exposure (ms):,0.635,,,,,,Exposure (ms):,0.635,,,,,,,
Digital Resolution:,228,,,,,,Digital Resolution:,228,,,,,,,
Num Repeats:,20,,,,,,Num Repeats:,20,,,,,,,
PGA Gain:,64,(FixedPGA),,,,,PGA Gain:,64,(AutoPGA),,,,,,
System Temp (C):,39.57,,,,,,System Temp (C):,39.77,,,,,,,
Humidity (%):,42.77,,,,,,Humidity (%):,43.47,,,,,,,
Lamp ADC:,3083,3085,851,854,,,Lamp ADC:,3083,3086,851,853,,,,
Data Date-Time:,2025/04/03T11:10:53,,,,,,Data Date-Time:,2025/04/03T11:07:08,,,,,,,
Total Measurement Time in sec:,6.4869538,,,,,,,,,,,,,,
,,,,,,,,,,,,,,,
***General Information***,,,,,,,***Calibration Coefficients***,,,,,,,,
Model Name:,NIR-S-G1,,,,,,Shift Vector Coefficients:,-2.27453457587495,0.0384893477179632,-0.000120883834660424,,,,,
Serial Number:,C23R004,(95UB125GC0VC23R004),,,,,Pixel to Wavelength Coefficients:,1773.06832862561,-0.918144602406657,-0.000240533803363975,,,,,
GUI Version:,3.13.1,Revision:,930,,,,Versions (Cal/Ref/Cfg):,1,3,1,,,,,
TIVA Version:,2.4.10,,,,,,***Lamp Usage ***,,,,,,,,
DLPC Version:,2.3.1,,,,,,Total Time(hh:mm:ss):,9min 59sec ,,,,,,,
UUID:,DE:67:0C:88:67:66:73:21,,,,,,***Device/Error/Activation Status***,,,,,,,,
Main Board Version:,F,,,,,,Device Status:,0x00000001,Activation Status:,Activated,,,,,
Detector Board Version:,C,,,,,,Error status:,0x00000000,Error Code:,0x00000000000000000000000000000000,,,,,
,,,,,,,,,Error Details:,Not found,,,,,
***Scan Data***,,,,,,,,,,,,,,,
Wavelength (nm),Absorbance (AU),Reference Signal (unitless),Sample Signal (unitless)
900.860912737931,0.304941050160289,117790,58367
904.749703961815,0.304254309388578,126677,62870
909.9280239805,0.303860515015909,138540,68820
913.806712784643,0.30297976227327,149349,74340
917.681071980326,0.299544038940849,162222,81389
921.551101567548,0.299242482417785,177966,89350
925.41680154631,0.298219046847348,196506,98891
929.278171916611,0.29650064165101,217860,110072
933.135212678451,0.29503133540882,240217,121779
936.987923831831,0.294692121209741,262304,133080
942.118137089843,0.292381552500065,288415,147108
945.960745823482,0.292610330043867,305576,155779
949.79902494866,0.29181506817631,321429,164161
953.632974465377,0.290158245259126,335515,172010
957.462594373634,0.289377631181203,349198,179347
961.287884673431,0.289361987917103,362458,186164
965.108845364766,0.287765966315536,374975,193302
970.196724673387,0.287133693851748,391206,201963
974.007582944981,0.286501571946068,402807,208255
977.814111608115,0.286199057220539,414286,214339
981.616310662789,0.285847156924465,424700,219905
985.414180109002,0.285280400530281,434033,225031
989.207719946754,0.28528759930239,442579,229458
992.996930176046,0.284810125374253,450441,233791
996.781810796877,0.284423784619183,457775,237809
1001.82158334482,0.283903659166155,466229,242491
1005.59636154591,0.283644631305643,471558,245409
1009.36681013854,0.28338196863742,475972,247856
1013.13292912271,0.28272885112682,479642,250143
1016.89471849842,0.283181176969542,482950,251606
1020.65217826567,0.283107696441784,484964,252698
1024.40530842446,0.282775857908371,486797,253847
1028.15410897478,0.282367865047548,488524,254987
1033.14577476206,0.282576007440752,489661,255458
1036.88447289264,0.281822156561232,490178,256172
1040.61884141477,0.282015690546895,490385,256166
1044.34888032843,0.28227749170955,490470,256056
1048.07458963364,0.281876682955922,489298,255680
1051.79596933038,0.281800058279188,488056,255076
1055.51301941866,0.282027189346819,486485,254122
1059.22573989848,0.281101919761765,485442,254118
1064.16929892509,0.280777249127505,484686,253912
1067.87191698517,0.280677727255021,485470,254381
1071.57020543679,0.28003637111254,486280,255182
1075.26416427995,0.28040769389245,487867,255796
1078.95379351464,0.280106419558066,489143,256643
1082.63909314088,0.279845665532943,491118,257834
1086.32006315866,0.279786796022343,494152,259462
1091.22128823587,0.279563479446735,496759,260965
1094.89215583391,0.279245970588192,500847,263305
1098.55869382348,0.278250222158838,504249,265702
1102.2209022046,0.278684595060609,507852,267333
1105.87878097725,0.278168243937458,511884,269776
1109.53233014145,0.277823933183246,515602,271951
1113.18154969718,0.278147499272674,520058,274097
1116.82643964446,0.27783617070078,523811,276273
1121.67955796099,0.277955206167626,528895,278878
1125.31434548853,0.2783893035732,533141,280836
1128.9448034076,0.278023632420823,536907,283058
1132.57093171821,0.278068107230111,541511,285456
1136.19273042036,0.279006126754414,546024,287214
1139.81019951405,0.279345443691355,550138,289152
1143.42333899928,0.279661000346435,554144,291046
1147.03214887605,0.28002604857186,558888,293291
1151.83716043191,0.280620835672391,564724,295948
1155.43586788894,0.281291836707677,569322,297897
1159.03024573751,0.282249891767214,574207,299791
1162.62029397761,0.282773846687528,579353,302113
1166.20601260926,0.283071046951425,584359,304515
1169.78740163244,0.283525785619943,589328,306783
1173.36446104717,0.284418502159045,594712,308950
1176.93719085343,0.284723193219456,600837,311913
1181.69409564862,0.285647126143936,608346,315140
1185.25672303515,0.286227663373396,615065,318195
1188.81502081321,0.286521734869747,621240,321172
1192.36898898281,0.286515194652062,628223,324787
1195.91862754395,0.287128421478502,635557,328115
1199.46393649663,0.28704901669477,642190,331600
1203.00491584085,0.286879337843347,649975,335751
1206.54156557661,0.286117360560121,657412,340189
1211.25036361113,0.285742667743264,667146,345524
1214.77691092715,0.285933925382863,674815,349342
1218.29912863471,0.285020510774585,682324,353973
1221.8170167338,0.284479630590234,689938,358369
1225.33057522444,0.283699755635576,697498,362947
1228.83980410662,0.283408543350176,704576,366876
1232.34470338033,0.282576207643565,711197,371034
1237.01116746546,0.282154884381342,719701,375835
1240.50596431943,0.281836786878614,725726,379259
1243.99643156495,0.281338362628924,731805,382875
1247.482569202,0.28111581307926,739488,387093
1250.96437723059,0.280822123823252,748123,391878
1254.44185565073,0.280406113051911,756592,396694
1257.9150044624,0.280653512329616,764853,400797
1261.38382366561,0.28038573393074,772979,405305
1266.00218099006,0.280043912188446,782366,410550
1269.46089777353,0.280017454734113,788740,413920
1272.91528494854,0.279987806267681,795115,417294
1276.36534251509,0.27973772243803,801031,420641
1279.81107047318,0.279614736920942,806664,423719
1283.2524688228,0.279837002150775,811675,426133
1286.68953756397,0.279691932843164,816029,428562
1290.12227669668,0.279425981875893,820224,431029
1294.69252726046,0.279504336545443,825469,433707
1298.11516397342,0.27916343034191,828119,435441
1301.53347107793,0.279211750757764,831300,437065
1304.94744857397,0.279526329120519,834116,438228
1308.35709646156,0.27950080688356,836113,439303
1311.76241474068,0.279510104246135,837625,440088
1315.16340341134,0.279686007244925,839301,440790
1318.56006247354,0.279733986414301,840224,441226
1323.08220627665,0.27993522343697,841305,441589
1326.46876291911,0.280072544816806,841552,441579
1329.85098995311,0.280781537474503,841753,440964
1333.22888737865,0.280787808179281,841454,440801
1336.60245519573,0.281433710565024,841003,439910
1339.97169340435,0.282066302205451,839874,438680
1343.33660200451,0.282448249570519,838622,437641
1347.81641185822,0.28341099337574,835897,435253
1351.17121803864,0.284305626124771,833181,432946
1354.52169461059,0.284689477658684,828825,430302
1357.86784157409,0.285297186877393,825827,428146
1361.20965892912,0.286146881020852,822663,425672
1364.5471466757,0.286765175592991,819943,423661
1367.88030481381,0.287641258189151,818523,422075
1371.20913334347,0.288360292743186,817187,420689
1375.64083643651,0.289109770676328,813728,418186
1378.95956254642,0.289923253757691,808561,414753
1382.27395904787,0.290821621480647,803058,411079
1385.58402594086,0.291723198454766,798118,407703
1388.88976322539,0.293047759476757,792788,403747
1392.19117090146,0.294463754244012,785338,398651
1395.48824896907,0.296188193727387,778340,393533
1398.78099742822,0.298390601553815,772318,388513
1403.16459376059,0.301715839930111,766175,382483
1406.4472398,0.305011451191967,762787,377913
1409.72555623094,0.307784645227378,760068,374169
1412.99954305343,0.311161867884746,758040,370280
1416.26920026746,0.314509528234354,756126,366509
1419.53452787302,0.317755605090158,754262,362883
1422.79552587013,0.320561604048771,752850,359871
1426.05219425877,0.323064501273677,751697,357255
1430.38768383047,0.32598751400148,750679,354378
1433.63424979937,0.328142321603588,749921,352268
1436.87648615981,0.329406310611493,748964,350796
1440.11439291179,0.330179037861496,748514,349962
1443.34797005532,0.331251665571165,747762,348748
1446.57721759038,0.331638428396442,745971,347603
1449.80213551698,0.332451280520136,745255,346620
1453.02272383511,0.332156145146494,743466,346023
1457.31010664614,0.332911908395103,740665,344120
1460.52059254454,0.333257716666929,738235,342718
1463.72674883448,0.333241386340423,735532,341476
1466.92857551595,0.333146894658049,732805,340284
1470.12607258897,0.333455390256527,729382,338454
1473.31924005352,0.332543700310504,725560,337388
1476.50807790962,0.332460437628901,722271,335923
1480.75312677125,0.331851778030096,717341,334098
1483.93186220761,0.331161417473969,713149,332674
1487.1062680355,0.33050768050394,708399,330956
1490.27634425493,0.330548427719344,704182,328955
1493.44209086591,0.329337947075322,699195,327537
1496.60350786842,0.328968299670627,694136,325444
1499.76059526247,0.327851116468623,688651,323704
1502.91335304806,0.327200632668965,683340,321689
1507.11029514902,0.326170195756939,675594,318798
1510.25295051487,0.325483270358243,669791,316560
1513.39127627226,0.3247615422761,663755,314229
1516.52527242119,0.323780088599959,656992,311731
1519.65493896165,0.322734481579294,650917,309593
1522.78027589366,0.321724219986835,643783,306913
1525.90128321721,0.320837142775824,636562,304091
1529.01796093229,0.319799016728947,629387,301383
1533.16679627258,0.318944338264875,619325,297149
1536.27337156793,0.318492555244497,611321,293614
1539.37561725481,0.317923186697473,603677,290323
1542.47353333323,0.31703643409347,595795,287118
1545.5671198032,0.31654662926478,586820,283112
1548.6563766647,0.315476613453372,578133,279609
1551.74130391774,0.314684502165963,569600,275985
1554.82190156232,0.314422204762838,560230,271609
1558.92263014194,0.313476326228024,548068,266292
1561.99312536678,0.313117116839265,538657,261936
1565.05929098316,0.312665164633622,529255,257632
1568.12112699108,0.311983174111188,520011,253530
1571.17863339054,0.31213168419673,510527,248821
1574.23181018153,0.311465940183441,501069,244586
1577.28065736407,0.310829656389221,490770,239910
1580.32517493815,0.310256928146573,481122,235504
1584.37779675709,0.309052053455958,468093,229763
1587.41221191143,0.308674212969368,457889,224950
1590.4422974573,0.307245620491452,447992,220813
1593.46805339471,0.307031188793242,437798,215895
1596.48947972367,0.306313977552696,428178,211500
1599.50657644416,0.305076029720303,418200,207161
1602.5193435562,0.304586059030364,408721,202694
1606.52963142574,0.30323185553151,395876,196937
1609.53229611804,0.302800716055636,386342,192385
1612.53063120187,0.302513287475608,376586,187651
1615.52463667724,0.302035585702532,367091,183121
1618.51431254415,0.300697134985803,357360,178817
1621.4996588026,0.301034995024887,347482,173739
1624.48067545259,0.300371513642314,338087,169300
1627.45736249411,0.299948104630665,328355,164587
1631.41954360299,0.29955045410857,315597,158337
1634.38612822478,0.299701907256517,306264,153601
1637.3483832381,0.298748936317166,297181,149373
1640.30630864297,0.299203827426397,288341,144778
1643.25990443938,0.299307540820258,279569,140340
1646.20917062732,0.299171744078225,270992,136077
1649.15410720681,0.298500852947733,262475,132004
1652.09471417783,0.299777824257653,253516,127124
1656.00878852603,0.300759531625086,242391,121271
1658.93929307732,0.300368861514402,233676,117016
1661.86546802014,0.301868602289878,224457,112012
1664.7873133545,0.30352906379283,214891,106829
1667.7048290804,0.303574430348715,204052,101430
1670.61801519784,0.305348573810304,192630,95362
1673.52687170682,0.306156822546884,179966,88927
1676.43139860734,0.308418173137066,165876,81539
1680.29736619487,0.310669561974796,144911,70865
1683.19179067565,0.312410918748388,128358,62519
1686.08188554796,0.315580802973773,112263,54282
1688.96765081182,0.314550052832819,96700,46868
1691.84908646722,0.318769217978111,83077,39876
1694.72619251415,0.31679842028363,70954,34212
1697.59896895263,0.319752263663843,60649,29045
1701.42260259077,0.325453370526814,49831,23553
