***Scan Config Information***,,,,,,,***Reference Scan Information***,,,,,,,,
Scan Config Name:,FolHerbario,,,,,,Scan Config Name:,Local New Reference,,,,,,,
Scan Config Type:,Slew,Num Section:,1,,,,Scan Config Type:,Slew,Num Section:,1,,,,,
Section Config Type:,Column,,,,,,Section Config Type:,Column,,,,,,,
Start Wavelength (nm):,900,,,,,,Start Wavelength (nm):,900,,,,,,,
End Wavelength (nm):,1700,,,,,,End Wavelength (nm):,1700,,,,,,,
Pattern Width (nm):,7.03,,,,,,Pattern Width (nm):,7.03,,,,,,,
Exposure (ms):,0.635,,,,,,Exposure (ms):,0.635,,,,,,,
Digital Resolution:,228,,,,,,Digital Resolution:,228,,,,,,,
Num Repeats:,20,,,,,,Num Repeats:,20,,,,,,,
PGA Gain:,64,(FixedPGA),,,,,PGA Gain:,64,(AutoPGA),,,,,,
System Temp (C):,42.02,,,,,,System Temp (C):,41.94,,,,,,,
Humidity (%):,42.1,,,,,,Humidity (%):,43.68,,,,,,,
Lamp ADC:,3077,3079,831,849,,,Lamp ADC:,3077,3078,831,849,,,,
Data Date-Time:,2025/04/03T11:36:09,,,,,,Data Date-Time:,2025/04/03T11:33:38,,,,,,,
Total Measurement Time in sec:,6.4798487,,,,,,,,,,,,,,
,,,,,,,,,,,,,,,
***General Information***,,,,,,,***Calibration Coefficients***,,,,,,,,
Model Name:,NIR-S-G1,,,,,,Shift Vector Coefficients:,-5.74589567087503,0.0468271937173058,-9.53581739805986E-05,,,,,
Serial Number:,C23R002,(95UB125GC0VC23R002),,,,,Pixel to Wavelength Coefficients:,1756.1983651918,-0.919335509971685,-0.000241825006214287,,,,,
GUI Version:,3.13.1,Revision:,930,,,,Versions (Cal/Ref/Cfg):,1,3,1,,,,,
TIVA Version:,2.4.10,,,,,,***Lamp Usage ***,,,,,,,,
DLPC Version:,2.3.1,,,,,,Total Time(hh:mm:ss):,13min 34sec ,,,,,,,
UUID:,DE:67:0C:88:67:76:74:21,,,,,,***Device/Error/Activation Status***,,,,,,,,
Main Board Version:,F,,,,,,Device Status:,0x00000001,Activation Status:,Activated,,,,,
Detector Board Version:,C,,,,,,Error status:,0x00000000,Error Code:,0x00000000000000000000000000000000,,,,,
,,,,,,,,,Error Details:,Not found,,,,,
***Scan Data***,,,,,,,,,,,,,,,
Wavelength (nm),Absorbance (AU),Reference Signal (unitless),Sample Signal (unitless)
901.701099874012,0.195125934770887,91238,58217
905.577788882674,0.190920854434604,98734,63613
909.450125041225,0.191641992470608,106572,68549
913.318108349663,0.189384506184997,115624,74759
917.18173880799,0.188709176638863,126450,81886
921.041016416205,0.188491247076008,139529,90401
926.179948793651,0.188650155295862,161610,104669
930.029069751605,0.187558909174028,181967,118150
933.873837859447,0.184957425928215,204299,133447
937.714253117177,0.185042795962398,225801,147463
941.550315524795,0.18469708316147,244335,159694
945.382025082302,0.182921537333655,260025,170645
949.209381789697,0.182787769042465,273740,179701
954.305752966049,0.181541896042279,289245,190425
958.122953023182,0.180917175773028,299351,197362
961.935800230204,0.180239220577003,309082,204096
965.744294587114,0.179431098875577,318310,210581
969.548436093912,0.179046321140014,326934,216478
973.348224750598,0.17850310780895,335675,222544
977.143660557173,0.178332037838601,344131,228240
982.197470532431,0.177395928899549,354880,235877
985.982749688744,0.176318950827393,362497,241538
989.763675994946,0.175512336912789,369966,246973
993.540249451036,0.175187415274093,377518,252203
997.312470057013,0.173964039292225,384512,257600
1001.08033781288,0.172762375167916,391254,262843
1004.84385271863,0.171955987903813,397657,267641
1009.8551014928,0.170508271306792,405811,274041
1013.60845974829,0.168982894923536,411064,278565
1017.35746515367,0.167997124131144,415927,282501
1021.10211770894,0.167056250171303,420088,285946
1024.8424174141,0.165790210163041,424017,289463
1028.57836426914,0.164184587542084,427067,292625
1032.30995827408,0.163529251496115,429645,294836
1037.27864584715,0.161675122732108,432085,297779
1041.00008320182,0.159972752992618,434219,300425
1044.71716770638,0.159230460243226,436167,302289
1048.42989936083,0.157596681540792,437328,304236
1052.13827816517,0.156710953103213,438913,305962
1055.8423041194,0.155597263035962,440436,307812
1059.54197722351,0.154449057748782,441966,309699
1064.46810359549,0.153119617616863,442422,310969
1068.15762004934,0.152371460812261,440939,310461
1071.84278365308,0.15116983986533,437565,308939
1075.52359440671,0.150648183038362,434574,307196
1079.20005231022,0.148914775947878,432478,306937
1082.87215736363,0.147944711150407,432119,307368
1086.53990956692,0.147594099041633,432932,308195
1091.42347473781,0.146108031326235,434190,310150
1095.08107029084,0.14573592955836,436638,312166
1098.73431299376,0.14465721787649,439096,314704
1102.38320284657,0.144302084075543,442840,317647
1106.02773984926,0.142941644189335,446094,320985
1109.66792400185,0.142720900444511,450072,324012
1113.30375530432,0.14223691960945,454717,327721
1118.14475927411,0.141697721060688,461194,332802
1121.77043392632,0.141472656223749,466138,336544
1125.39175572842,0.140907749418679,471227,340661
1129.00872468041,0.141166674482783,477133,344725
1132.62134078229,0.140886305569337,482629,348921
1136.22960403405,0.140746561762701,488403,353209
1139.83351443571,0.141222812027195,493788,356712
1144.6319572044,0.141084803804633,501346,362287
1148.22571095579,0.141873461642082,507280,365910
1151.81511185707,0.141763143872803,512691,369907
1155.40015990824,0.142208167703991,518271,373550
1158.9808551093,0.142610064185436,524189,377466
1162.55719746024,0.142985255410195,530046,381354
1166.12918696107,0.143594862636552,535463,384711
1170.88506852868,0.143857642065158,542940,389847
1174.44690137925,0.144799069867223,549475,393685
1178.00438137971,0.1449473933722,555207,397656
1181.55750853005,0.145184327276703,560926,401533
1185.10628283029,0.145423709370843,567314,405882
1188.65070428041,0.14546473067623,574164,410744
1192.19077288043,0.14464225340363,580683,416195
1196.90409324693,0.144130186879513,589397,422939
1200.43400519669,0.143797991500663,596296,428217
1203.95956429632,0.143399637604637,603255,433612
1207.48077054585,0.14258705712348,610280,439483
1210.99762394527,0.14182552791531,617449,445426
1214.51012449457,0.140955022650599,624426,451363
1218.01827219376,0.139891349149115,631826,457832
1222.68903135918,0.138575110294512,641291,466101
1226.18702240811,0.137517332138561,647649,471870
1229.68066060693,0.136746660917319,654613,477791
1233.16994595564,0.135786694683796,662249,484434
1236.65487845423,0.134676186429958,670130,491454
1240.13545810271,0.134158113324838,679976,499270
1243.61168490109,0.133137085295963,690059,507866
1248.23988286541,0.132526642701643,702673,517877
1251.70595301352,0.131499356110314,710116,524602
1255.16767031152,0.131292120211496,717726,530477
1258.6250347594,0.130745935986673,724910,536461
1262.07804635718,0.130115708157063,731639,542227
1265.52670510484,0.129550339102917,737646,547391
1268.97101100239,0.129206159449193,743541,552203
1273.55664776562,0.12857209460636,752231,559473
1276.99079701291,0.128409392407867,758117,564062
1280.42059341009,0.127710429488369,763104,568687
1283.84603695715,0.127408196128394,768606,573186
1287.26712765411,0.12685756494472,773956,577908
1290.68386550095,0.126372705196706,778933,582274
1294.09625049768,0.125708363539634,783367,586485
1298.63932605982,0.125673656360394,790363,591770
1302.04155440629,0.125300327323991,794636,595481
1305.43942990264,0.125110349275852,799005,599017
1308.83295254889,0.124952437284247,803048,602267
1312.22212234502,0.124661599201323,806785,605475
1315.60693929105,0.12495159176953,810820,608097
1320.11325745224,0.125155217614788,814702,610722
1323.487917748,0.124980745645882,816751,612504
1326.85822519365,0.1253913497679,819543,614017
1330.22417978919,0.125929965642426,822153,615209
1333.58578153461,0.126325841674901,823708,615811
1336.94303042993,0.127271736993867,824945,615394
1340.29592647513,0.128074714515229,826332,615290
1344.75968343522,0.129524979843361,827316,613969
1348.10242283016,0.130897133940954,826702,611578
1351.44080937499,0.132332287731496,825919,608983
1354.77484306971,0.133342022179083,823641,605893
1358.10452391432,0.134831909022736,821820,602483
1361.42985190881,0.13610121851826,820057,599436
1364.75082705319,0.136977430824836,819195,597599
1369.17202281219,0.138685925104618,820273,596036
1372.48284130632,0.139872732933236,820260,594400
1375.78930695032,0.140775360233601,817901,591460
1379.09141974422,0.141840782035341,814523,587574
1382.38917968801,0.143512422656826,811178,582913
1385.68258678168,0.145173110403149,808008,578419
1388.97164102524,0.147586306127198,805033,573096
1393.35027558315,0.151911820722873,799766,563704
1396.62917317645,0.155479097874647,796133,556553
1399.90371791964,0.15966332002285,793437,549350
1403.17390981272,0.165180861230555,792855,542017
1406.43974885568,0.171058824882591,793007,534833
1409.70123504853,0.177550421933937,794077,527609
1412.95836839128,0.184102222989959,794448,519952
1417.29444174809,0.193175299528385,794607,509304
1420.54141844057,0.19954557081345,794493,501816
1423.78404228294,0.205864411434815,794484,494562
1427.0223132752,0.21114510763899,793889,488219
1430.25623141734,0.21617688378231,793142,482141
1433.48579670937,0.21971185618387,792836,478048
1436.71100915129,0.222794100898117,791795,474044
1441.00452130702,0.225642656459873,790013,469885
1444.21957709868,0.227109922936132,788680,467510
1447.43028004022,0.228090817588985,786610,465231
1450.63663013166,0.228647368138552,784441,463354
1453.83862737298,0.22928702456389,781874,461158
1457.0362717642,0.229617809075333,778893,459050
1460.2295633053,0.229241427047572,775260,457305
1464.48051425993,0.229064004680806,770168,454487
1467.66364915076,0.228585280601316,766601,452881
1470.84243119149,0.227818922056477,762458,451229
1474.01686038211,0.226880263661787,758018,449572
1477.18693672261,0.22596587418084,753099,447596
1480.35266021301,0.224614811898352,748009,445956
1483.51403085329,0.223493578135586,742378,443743
1487.72242060682,0.221662050818967,734914,441138
1490.87363459684,0.220479367769905,728815,438670
1494.02049573675,0.219162954257436,722503,436191
1497.16300402654,0.217534255275879,716513,434200
1500.30115946623,0.216291398880583,710202,431609
1503.4349620558,0.215191469659609,703155,428410
1506.56441179526,0.213750791115941,696326,425659
1510.7302403477,0.211570727437517,686869,421991
1513.8495334369,0.210174938580844,678988,418492
1516.96447367598,0.208825831606491,669919,414187
1520.07506106496,0.207777110017211,662096,410340
1523.18129560382,0.206766307579219,654731,406721
1526.28317729258,0.205756902193322,646562,402581
1529.38070613122,0.204802073105686,637466,397791
1533.50397348256,0.203642365327067,626159,391780
1536.59134567094,0.203296954558613,617432,386627
1539.67436500921,0.20234625933924,608430,381825
1542.75303149736,0.2018419808157,599231,376489
1545.82734513541,0.201463279218075,589762,370863
1548.89730592334,0.200818253957126,580490,365575
1551.96291386116,0.200402030136859,570714,359763
1556.04362001141,0.199616587268249,557227,351897
1559.09907129897,0.199358593347394,547233,345791
1562.15016973641,0.198959057076037,537327,339844
1565.19691532375,0.198571795620872,527163,333713
1568.23930806097,0.198248170611421,516641,327296
1571.27734794808,0.198294497635648,507063,321194
1574.31103498508,0.197433604821276,496678,315240
1578.34917993424,0.197378095474217,483161,306700
1581.37271032098,0.196858695128189,473171,300718
1584.39188785761,0.196176214115809,463035,294739
1587.40671254412,0.195490557263715,452346,288390
1590.41718438052,0.195053958081659,442073,282124
1593.42330336681,0.194520487175249,431450,275683
1596.42506950299,0.193604075909894,421595,269955
1600.42065325106,0.192191464488316,407712,261916
1603.41226273698,0.191714423333163,397574,255684
1606.39951937278,0.190708404772286,387360,249693
1609.38242315848,0.189495789111415,377711,244154
1612.36097409406,0.188790571873434,367706,238073
1615.33517217953,0.188093476237315,357935,232119
1618.30501741489,0.187907505319713,348458,226070
1622.25803996186,0.187284225608562,336039,218326
1625.21772854696,0.186884426976322,326205,212132
1628.17306428194,0.186311061097336,316611,206165
1631.12404716682,0.186574327993549,307537,200135
1634.07067720158,0.186410901603327,298274,194180
1637.01295438623,0.18678697007151,289411,188247
1639.95087872077,0.186207200307537,279452,182012
1643.86134006665,0.186446504759879,267212,173944
1646.78910775092,0.187558178893245,258097,167581
1649.71252258509,0.18805176726354,248635,161254
1652.63158456914,0.189442158536218,240009,155162
1655.54629370308,0.18905948447097,230939,149430
1658.45664998691,0.19162791411815,222653,143219
1661.36265342063,0.193241706079128,213787,137006
1665.23055356542,0.195742296938664,201606,128458
1668.12640034887,0.198761509844775,191836,121386
1671.01789428222,0.200518819303474,181830,114590
1673.90503536545,0.202773033805337,170429,106849
1676.78782359857,0.203864627559142,158123,98885
1679.66625898158,0.208498181775013,145097,89776
1682.54034151448,0.210397514090613,130810,80583
1686.36568045817,0.21310700543746,111119,68027
1689.22960634081,0.215635833899376,96424,58688
1692.08917937333,0.216655609330754,82603,50158
1694.94439955575,0.216701465123232,70175,42607
1697.79526688805,0.217335738692307,59769,36236
1700.64178137024,0.214622215827806,50778,30978
