***Scan Config Information***,,,,,,,***Reference Scan Information***,,,,,,,,
Scan Config Name:,FolHerbario,,,,,,Scan Config Name:,Local New Reference,,,,,,,
Scan Config Type:,Slew,Num Section:,1,,,,Scan Config Type:,Slew,Num Section:,1,,,,,
Section Config Type:,Column,,,,,,Section Config Type:,Column,,,,,,,
Start Wavelength (nm):,900,,,,,,Start Wavelength (nm):,900,,,,,,,
End Wavelength (nm):,1700,,,,,,End Wavelength (nm):,1700,,,,,,,
Pattern Width (nm):,7.03,,,,,,Pattern Width (nm):,7.03,,,,,,,
Exposure (ms):,0.635,,,,,,Exposure (ms):,0.635,,,,,,,
Digital Resolution:,228,,,,,,Digital Resolution:,228,,,,,,,
Num Repeats:,20,,,,,,Num Repeats:,20,,,,,,,
PGA Gain:,64,(FixedPGA),,,,,PGA Gain:,64,(AutoPGA),,,,,,
System Temp (C):,40.29,,,,,,System Temp (C):,40.17,,,,,,,
Humidity (%):,48.88,,,,,,Humidity (%):,49.03,,,,,,,
Lamp ADC:,3066,3082,829,851,,,Lamp ADC:,3066,3081,829,851,,,,
Data Date-Time:,2025/04/03T10:27:22,,,,,,Data Date-Time:,2025/04/03T10:26:20,,,,,,,
Total Measurement Time in sec:,6.4800862,,,,,,,,,,,,,,
,,,,,,,,,,,,,,,
***General Information***,,,,,,,***Calibration Coefficients***,,,,,,,,
Model Name:,NIR-S-G1,,,,,,Shift Vector Coefficients:,0.392694521123758,0.0064508848494657,-3.36963000867986E-05,,,,,
Serial Number:,C23R003,(95UB125GC0VC23R003),,,,,Pixel to Wavelength Coefficients:,1737.96619343203,-0.927679554192883,-0.000240514673521399,,,,,
GUI Version:,3.13.1,Revision:,930,,,,Versions (Cal/Ref/Cfg):,1,3,1,,,,,
TIVA Version:,2.4.10,,,,,,***Lamp Usage ***,,,,,,,,
DLPC Version:,2.3.1,,,,,,Total Time(hh:mm:ss):,7min 29sec ,,,,,,,
UUID:,DE:67:0C:88:67:47:5F:21,,,,,,***Device/Error/Activation Status***,,,,,,,,
Main Board Version:,F,,,,,,Device Status:,0x00000001,Activation Status:,Activated,,,,,
Detector Board Version:,C,,,,,,Error status:,0x00000000,Error Code:,0x00000000000000000000000000000000,,,,,
,,,,,,,,,Error Details:,Not found,,,,,
***Scan Data***,,,,,,,,,,,,,,,
Wavelength (nm),Absorbance (AU),Reference Signal (unitless),Sample Signal (unitless)
901.114121469303,0.220138967492143,104360,62863
904.983805426851,0.218007022753824,112735,68242
908.849160120276,0.216058182034676,120593,73327
913.996231967317,0.213699618094733,132744,81155
917.851485044454,0.212951627556769,144042,88214
921.702408857468,0.211754247815908,157682,96834
925.549003406358,0.209440863169145,173934,107385
929.391268691125,0.207730605145164,192480,119304
933.229204711769,0.207503040165468,212771,131950
937.062811468289,0.20618933224692,232838,144832
942.16755273279,0.204799832285941,258409,161253
945.991057873023,0.203477440959341,276239,172905
949.810233749132,0.203083079156135,292753,183408
953.625080361117,0.201385377817596,308714,194165
957.435597708979,0.200233057037704,324800,204825
961.241785792718,0.199506442308862,340403,215024
966.309968826844,0.198418669267701,359807,227851
970.106055294295,0.197123019055437,373264,237079
973.897812497622,0.196401340472585,385574,245305
977.685240436826,0.195728039809812,396452,252617
981.468339111907,0.195164677505799,406270,259209
985.247108522864,0.194299664760359,414251,264828
989.021548669698,0.193710432637711,420497,269186
994.047401121285,0.193507725626927,426857,273385
997.811739651831,0.19237220339053,430461,276415
1001.57174891825,0.192316854996024,434179,278838
1005.32742892055,0.191681510590749,435578,280146
1009.07877965873,0.190580238673561,436795,281642
1012.82580113278,0.1901262255904,438159,282817
1016.56849334271,0.190023880858688,438982,283415
1021.55201521176,0.188949256154378,438750,283967
1025.2846058054,0.188552618456839,438368,283979
1029.01286713492,0.187858557741513,437631,283955
1032.73679920031,0.187440291228207,436794,283685
1036.45640200158,0.186924002601693,435583,283235
1040.17167553873,0.186885637371546,436175,283645
1045.1186391774,0.186074253973511,436621,284466
1048.82381109826,0.18507759330773,436150,284812
1052.524653755,0.185107562612503,436589,285079
1056.22116714761,0.185157789120287,437632,285727
1059.9133512761,0.184707585277548,438753,286756
1063.60120614046,0.183949603184286,439248,287581
1067.28473174071,0.183672294445803,440001,288258
1072.18936479684,0.182895577610172,441802,289956
1075.86278878079,0.183100446497269,443637,291023
1079.53188350063,0.182639456906234,445950,292851
1083.19664895633,0.182198924043071,448049,294528
1086.85708514792,0.182146733597937,450403,296111
1090.51319207538,0.181840508276166,451262,296885
1094.16496973872,0.181526802962231,453014,298253
1099.02727221231,0.181832067591141,455386,299604
1102.66894825936,0.18112137262245,457429,301441
1106.30629504229,0.180759737076622,459409,302998
1109.93931256109,0.180671478493389,461494,304435
1113.56800081577,0.180750150566023,463770,305881
1117.19235980633,0.180288070205649,466103,307747
1120.81238953276,0.180403100542783,468355,309152
1125.63236142381,0.180576461979797,471949,311400
1129.24228953396,0.181138162057251,474698,312809
1132.84788837998,0.180752964817341,476979,314591
1136.44915796188,0.181238297455152,480073,316278
1140.04609827965,0.181283647962315,483141,318266
1143.6387093333,0.180928015588965,486219,320556
1148.42212299398,0.181764077064229,490668,322867
1152.00463243134,0.181922861282163,494639,325361
1155.58281260458,0.182322908360026,498791,327790
1159.1566635137,0.18238274723665,502946,330475
1162.72618515869,0.182816056004877,507805,333335
1166.29137753957,0.183172895046886,512525,336157
1169.85224065631,0.183793511720926,517898,339196
1174.59332373445,0.184268578993007,525363,343709
1178.14408523491,0.183887986245681,531546,348059
1181.69051747124,0.184854918073356,537898,351435
1185.23262044346,0.184545816444199,544632,356088
1188.77039415154,0.184992344117661,551341,360104
1192.30383859551,0.184790989674867,558904,365213
1195.83295377535,0.18523222587214,566836,370020
1200.53170627095,0.184553336140567,577061,377284
1204.0507198345,0.184665976400328,585027,382393
1207.56540413393,0.18450487079607,593070,387794
1211.07575916924,0.184399749645718,601715,393542
1214.58178494043,0.184186615966738,609825,399042
1218.08348144749,0.183620363871891,617240,404421
1222.74567571271,0.18336754270747,627848,411611
1226.23727060348,0.182835534514509,634811,416686
1229.72453623013,0.182483003349159,641044,421119
1233.20747259266,0.182400644780868,648657,426201
1236.68607969106,0.182004024448718,658020,432748
1240.16035752534,0.18173821617281,668928,440191
1243.63030609549,0.181490737616108,678791,446936
1248.25016977818,0.18099446334917,691842,456050
1251.71001673204,0.180965208518327,701258,462288
1255.16553442179,0.180760077580137,710059,468311
1258.61672284741,0.180599626107762,718636,474143
1262.06358200891,0.180529715345158,726602,479476
1265.50611190628,0.180112688540062,733703,484627
1268.94431253953,0.180323773684963,740226,488698
1273.52184563968,0.180384287105472,748193,493889
1276.94994465664,0.180198055668141,754435,498223
1280.37371440948,0.180162012307112,759422,501558
1283.79315489819,0.18017630575534,764094,504627
1287.20826612279,0.180102260882156,768289,507484
1290.61904808326,0.179913487206945,772392,510416
1295.16002295302,0.179570422041636,776908,513806
1298.56070329721,0.179791103534856,779734,515413
1301.95705437726,0.179778856301716,781603,516663
1305.3490761932,0.179507303708647,784058,518610
1308.73676874501,0.179762017129051,786005,519593
1312.1201320327,0.180076852798485,787176,519990
1315.49916605626,0.180132499334482,787669,520249
1319.99781034349,0.18022252284337,788541,520717
1323.36674275077,0.180350286380637,788823,520750
1326.73134589392,0.180965679849092,788593,519861
1330.09161977295,0.180625135733387,787890,519805
1333.44756438786,0.181588565899927,787630,518482
1336.79917973864,0.181880526555915,786825,517604
1340.1464658253,0.182348629772275,784770,515696
1344.60277952999,0.183312143422662,782389,512992
1347.93996400036,0.183851418034808,780136,510880
1351.27281920661,0.184506464616961,776542,507760
1354.60134514873,0.185512077546586,771507,503301
1357.92554182674,0.185866211197491,766661,499732
1361.24540924061,0.186681287183743,763215,496553
1364.56094739037,0.187509291027836,760683,493963
1368.97493051252,0.188210075572346,757989,491420
1372.28036704598,0.188582876183802,756085,489765
1375.58147431533,0.189226273604859,753146,487139
1378.87825232055,0.189717238025224,747785,483125
1382.17070106165,0.190758544407529,742696,478688
1385.45882053862,0.19137758484432,738106,475052
1389.83624543039,0.193470467308093,731639,468626
1393.11426329108,0.194703114649502,723944,462383
1396.38795188764,0.196513408106535,715997,455405
1399.65731122008,0.198503053027782,708126,448340
1402.92234128839,0.201097313277986,701151,441280
1406.18304209259,0.203866854095586,695345,434844
1409.43941363266,0.206886774407704,691943,429718
1413.77450794189,0.211580931884847,689789,423775
1417.02077786567,0.215207477204733,689180,419880
1420.26271852533,0.218080145733473,688407,416644
1423.50032992086,0.221410566617546,688485,413508
1426.73361205227,0.22400118448456,688390,410992
1429.96256491956,0.226422255109946,688105,408538
1433.18718852272,0.228555708739578,688061,406510
1437.47995224942,0.23119517443354,686612,403196
1440.69447423629,0.231553068863971,686210,402628
1443.90466695905,0.232955074805889,685452,400887
1447.11053041767,0.233361055071186,683899,399605
1450.31206461218,0.234042274834511,682062,397907
1453.50926954256,0.234269636332099,680368,396711
1457.76547503888,0.234372140875921,677259,394805
1460.95257835298,0.234907074918172,674626,392786
1464.13535240295,0.235113737881898,671287,390656
1467.31379718879,0.235293756206185,667553,388322
1470.48791271052,0.235215841280466,663389,385969
1473.65769896812,0.234896838039005,658682,383512
1476.8231559616,0.23505503247067,654716,381064
1481.03703087538,0.234521646789048,648567,377949
1484.19238625257,0.234226340123587,643352,375165
1487.34341236563,0.23414837196828,637930,372070
1490.49010921458,0.233606956384879,632385,369296
1493.63247679939,0.233117021389483,627117,366633
1496.77051512009,0.23305818717164,620947,363075
1499.90422417666,0.231994981889975,614418,360138
1504.0757685079,0.231791243393921,606376,355591
1507.19937594819,0.231239456551765,599136,351792
1510.31865412435,0.230212798855883,591902,348367
1513.43360303639,0.230002737440582,584782,344343
1516.5442226843,0.22915732759446,576948,340392
1519.65051306809,0.22810800479929,569614,336878
1522.75247418776,0.228168527925436,561960,332305
1526.88168793646,0.227703112207037,551692,326583
1529.97354743984,0.226825171686795,543890,322616
1533.0610776791,0.226286493604136,535366,317954
1536.14427865423,0.226214650956964,527035,313058
1539.22315036524,0.225672163297909,518572,308416
1542.29769281213,0.225793207468312,510102,303294
1546.39034833045,0.22504384481609,498546,296935
1549.45478916105,0.225167529889248,489755,291616
1552.51490072752,0.225028733281771,481031,286513
1555.57068302988,0.224541230106669,472185,281560
1558.6221360681,0.224837592539064,462982,275884
1561.66925984221,0.224161272171669,454058,270988
1564.71205435219,0.224370386273805,444889,265388
1568.76237928798,0.224293179284894,432650,258133
1571.79507218167,0.223864756191295,423570,252965
1574.82343581124,0.223799325104109,414166,247386
1577.84747017669,0.223501213105942,404630,241856
1580.86717527801,0.224046928523086,395877,236327
1583.88255111521,0.223331480849035,386606,231173
1586.89359768829,0.223603472524688,377457,225561
1590.90159204153,0.222953716702487,365335,218644
1593.90253699832,0.222826680399072,356121,213192
1596.89915269099,0.222637511144284,347195,207939
1599.89143911953,0.222459116673431,338689,202928
1602.87939628395,0.221307403567841,329519,197958
1605.86302418424,0.220810966395077,320593,192816
1609.83446030711,0.220300025160522,308473,185745
1612.80798659112,0.220554576321618,300229,180675
1615.777183611,0.219943489211239,291130,175446
1618.74205136676,0.219396747016075,282590,170514
1621.7025898584,0.218918624898086,273770,165374
1624.65879908592,0.219266175793079,265412,160197
1627.61067904931,0.219582258310925,256987,154999
1631.53978458964,0.218886412865255,245945,148577
1634.48156293674,0.219264669292957,237776,143517
1637.41901201972,0.2192765270655,229785,138690
1640.35213183857,0.21858368733229,221783,134074
1643.28092239331,0.21852991344325,214048,129414
1646.20538368392,0.218826118127553,206420,124717
1649.1255157104,0.219401167676896,198997,120073
1653.01229066819,0.218860276078595,188995,114180
1655.92232107839,0.221290272726081,181851,109251
1658.82802222446,0.22163195932732,174243,104598
1661.72939410641,0.221049837857434,166372,100007
1664.62643672424,0.222184088530276,158494,95023
1667.51915007795,0.224207274882415,149865,89432
1671.36936680536,0.224042307014195,137816,82273
1674.25197854278,0.224940191827727,127402,75899
1677.13026101607,0.22542568990511,116267,69188
1680.00421422524,0.227151399544453,104294,61817
1682.87383817029,0.227335659033161,92184,54616
1685.73913285121,0.228283183592658,80032,47313
1688.60009826801,0.231601106941437,68617,40256
1692.40798441288,0.230825349170612,55172,32426
1695.25884821339,0.234667889528414,46827,27279
1698.10538274978,0.232249173533824,39428,23097
1700.94758802205,0.239256702286712,33248,19165
