***Scan Config Information***,,,,,,,***Reference Scan Information***,,,,,,,,
Scan Config Name:,FolHerbario,,,,,,Scan Config Name:,Local New Reference,,,,,,,
Scan Config Type:,Slew,Num Section:,1,,,,Scan Config Type:,Slew,Num Section:,1,,,,,
Section Config Type:,Column,,,,,,Section Config Type:,Column,,,,,,,
Start Wavelength (nm):,900,,,,,,Start Wavelength (nm):,900,,,,,,,
End Wavelength (nm):,1700,,,,,,End Wavelength (nm):,1700,,,,,,,
Pattern Width (nm):,7.03,,,,,,Pattern Width (nm):,7.03,,,,,,,
Exposure (ms):,0.635,,,,,,Exposure (ms):,0.635,,,,,,,
Digital Resolution:,228,,,,,,Digital Resolution:,228,,,,,,,
Num Repeats:,20,,,,,,Num Repeats:,20,,,,,,,
PGA Gain:,64,(FixedPGA),,,,,PGA Gain:,64,(AutoPGA),,,,,,
System Temp (C):,40.97,,,,,,System Temp (C):,40.76,,,,,,,
Humidity (%):,43.17,,,,,,Humidity (%):,44.2,,,,,,,
Lamp ADC:,3066,3081,829,851,,,Lamp ADC:,3066,3082,829,851,,,,
Data Date-Time:,2025/04/03T11:07:22,,,,,,Data Date-Time:,2025/04/03T11:02:43,,,,,,,
Total Measurement Time in sec:,6.483519,,,,,,,,,,,,,,
,,,,,,,,,,,,,,,
***General Information***,,,,,,,***Calibration Coefficients***,,,,,,,,
Model Name:,NIR-S-G1,,,,,,Shift Vector Coefficients:,0.392694521123758,0.0064508848494657,-3.36963000867986E-05,,,,,
Serial Number:,C23R003,(95UB125GC0VC23R003),,,,,Pixel to Wavelength Coefficients:,1737.96619343203,-0.927679554192883,-0.000240514673521399,,,,,
GUI Version:,3.13.1,Revision:,930,,,,Versions (Cal/Ref/Cfg):,1,3,1,,,,,
TIVA Version:,2.4.10,,,,,,***Lamp Usage ***,,,,,,,,
DLPC Version:,2.3.1,,,,,,Total Time(hh:mm:ss):,11min 5sec ,,,,,,,
UUID:,DE:67:0C:88:67:47:5F:21,,,,,,***Device/Error/Activation Status***,,,,,,,,
Main Board Version:,F,,,,,,Device Status:,0x00000001,Activation Status:,Activated,,,,,
Detector Board Version:,C,,,,,,Error status:,0x00000000,Error Code:,0x00000000000000000000000000000000,,,,,
,,,,,,,,,Error Details:,Not found,,,,,
***Scan Data***,,,,,,,,,,,,,,,
Wavelength (nm),Absorbance (AU),Reference Signal (unitless),Sample Signal (unitless)
901.114121469303,0.445279198717898,104070,37329
904.983805426851,0.44189620187955,112441,40647
908.849160120276,0.443898106415319,120300,43288
913.996231967317,0.441714125506148,132076,47765
917.851485044454,0.441731705389442,143228,51796
921.702408857468,0.439987261514489,156700,56896
925.549003406358,0.44167746102045,172858,62519
929.391268691125,0.44139697885724,191273,69224
933.229204711769,0.440194370630552,211264,76671
937.062811468289,0.43756045292493,231226,84426
942.16755273279,0.438853494433098,256792,93482
945.991057873023,0.438123111465839,274556,100117
949.810233749132,0.437546265776038,291251,106346
953.625080361117,0.436965757267856,307688,112498
957.435597708979,0.436027235375666,323718,118615
961.241785792718,0.434987965204259,338760,124424
966.309968826844,0.435313041171253,358604,131614
970.106055294295,0.433995888369724,372040,136960
973.897812497622,0.434805462143663,384393,141244
977.685240436826,0.433248178380168,395323,145782
981.468339111907,0.433469532726201,405460,149444
985.247108522864,0.432700494884701,413282,152597
989.021548669698,0.432208058417332,419685,155137
994.047401121285,0.43069747682302,425698,157908
997.811739651831,0.430222902418861,429671,159556
1001.57174891825,0.429394992816257,432965,161086
1005.32742892055,0.42941700666596,434511,161653
1009.07877965873,0.427725177862384,435641,162706
1012.82580113278,0.427850846676162,437291,163275
1016.56849334271,0.42645589449093,437664,163940
1021.55201521176,0.425824566810456,437740,164207
1025.2846058054,0.425061408466335,437352,164350
1029.01286713492,0.424388227227456,436749,164378
1032.73679920031,0.423447547474133,435637,164315
1036.45640200158,0.422955932213959,434686,164142
1040.17167553873,0.422281676436037,434871,164467
1045.1186391774,0.421677766039029,435748,165028
1048.82381109826,0.419971534264105,435244,165486
1052.524653755,0.42025374654924,435219,165369
1056.22116714761,0.42001422264101,436744,166040
1059.9133512761,0.418391336504086,437691,167023
1063.60120614046,0.418164202585282,438316,167349
1067.28473174071,0.416802909099562,438597,167982
1072.18936479684,0.416525336190265,440793,168931
1075.86278878079,0.415892787972522,442301,169756
1079.53188350063,0.414846491103579,444990,171200
1083.19664895633,0.414589588317734,447270,172179
1086.85708514792,0.413546845500314,448991,173257
1090.51319207538,0.414250792154225,450415,173525
1094.16496973872,0.413007089532114,452031,174647
1099.02727221231,0.412231209361933,454185,175793
1102.66894825936,0.411545326403668,456329,176902
1106.30629504229,0.411279856752578,458128,177708
1109.93931256109,0.411021904490758,460435,178709
1113.56800081577,0.411312766833712,462855,179528
1117.19235980633,0.41083790421847,465316,180680
1120.81238953276,0.409996752544133,467369,181829
1125.63236142381,0.409880111842392,470710,183178
1129.24228953396,0.409385893509718,473360,184419
1132.84788837998,0.409883185048729,475678,185110
1136.44915796188,0.409705263480448,478807,186404
1140.04609827965,0.409489687934648,481984,187734
1143.6387093333,0.409139475411667,485033,189074
1148.42212299398,0.409613228179179,489620,190654
1152.00463243134,0.408679660644832,493476,192569
1155.58281260458,0.409249561346528,497334,193820
1159.1566635137,0.410125160771931,502053,195265
1162.72618515869,0.410015275327022,506175,196918
1166.29137753957,0.409887302964608,511227,198942
1169.85224065631,0.410067577913465,516532,200923
1174.59332373445,0.41019553050714,524260,203869
1178.14408523491,0.409952774442745,530197,206293
1181.69051747124,0.410754228314413,536599,208399
1185.23262044346,0.410912275362574,543427,210974
1188.77039415154,0.410319215728665,549574,213652
1192.30383859551,0.409765505897511,557110,216858
1195.83295377535,0.410332229209372,565215,219726
1200.53170627095,0.409504704376513,575364,224098
1204.0507198345,0.409801854982676,583522,227120
1207.56540413393,0.409190247110264,591624,230598
1211.07575916924,0.408559762138567,600091,234238
1214.58178494043,0.407737571703162,608325,237902
1218.08348144749,0.406962001584942,615673,241206
1222.74567571271,0.406354469129153,625895,245554
1226.23727060348,0.405310098416085,632760,248845
1229.72453623013,0.404573668884024,639674,251991
1233.20747259266,0.404140571345872,646591,254970
1236.68607969106,0.403808498969647,656357,259019
1240.16035752534,0.402998541853401,666875,263661
1243.63030609549,0.402256376369849,676672,267992
1248.25016977818,0.401787564445517,690064,273591
1251.71001673204,0.400989980768474,699178,277714
1255.16553442179,0.400911900675964,708245,281366
1258.61672284741,0.40011663860467,716595,285205
1262.06358200891,0.399598753273396,724532,288708
1265.50611190628,0.399729427724081,731794,291514
1268.94431253953,0.399628389829013,738513,294259
1273.52184563968,0.398746383004215,746352,297987
1276.94994465664,0.398551711887671,752394,300534
1280.37371440948,0.39844310225369,757507,302652
1283.79315489819,0.397496773099644,761917,305078
1287.20826612279,0.396977612167261,766073,307109
1290.61904808326,0.396654437256112,770107,308956
1295.16002295302,0.396551052919676,774980,310985
1298.56070329721,0.396204352776356,777377,312196
1301.95705437726,0.395712939490875,779781,313516
1305.3490761932,0.395979571791002,782114,314261
1308.73676874501,0.395552798100718,784123,315378
1312.1201320327,0.395549461409237,785109,315777
1315.49916605626,0.395510185491496,785662,316028
1319.99781034349,0.394987817974073,786195,316623
1323.36674275077,0.395117743408868,786850,316792
1326.73134589392,0.395024205052125,786539,316735
1330.09161977295,0.395052736042957,786017,316504
1333.44756438786,0.395108866710992,785751,316356
1336.79917973864,0.395447430970618,785111,315852
1340.1464658253,0.396004325911487,783184,314673
1344.60277952999,0.396500238241141,780710,313321
1347.93996400036,0.397102721381339,778066,311827
1351.27281920661,0.397240622305061,774961,310484
1354.60134514873,0.398104481406511,769859,307827
1357.92554182674,0.398766427810271,765613,305663
1361.24540924061,0.399039635194583,762225,304119
1364.56094739037,0.399888510239579,759515,302446
1368.97493051252,0.40063233412649,756699,300809
1372.28036704598,0.401062670609419,755052,299857
1375.58147431533,0.401618244085362,752103,298304
1378.87825232055,0.402913316158549,747180,295469
1382.17070106165,0.403187427371394,741470,293026
1385.45882053862,0.404305812220121,736999,290510
1389.83624543039,0.405530069905759,730104,286982
1393.11426329108,0.407259708855459,722724,282952
1396.38795188764,0.409198405385643,714607,278528
1399.65731122008,0.411425050224842,706874,274105
1402.92234128839,0.415035531099899,699859,269138
1406.18304209259,0.418321646379347,694288,264983
1409.43941363266,0.422338908323176,690178,260989
1413.77450794189,0.428352504066347,688309,256703
1417.02077786567,0.432909256874226,687413,253693
1420.26271852533,0.437381879584884,687025,250952
1423.50032992086,0.441409396457689,686844,248570
1426.73361205227,0.444786365538033,686572,246547
1429.96256491956,0.447563864215478,686703,245022
1433.18718852272,0.450162697710001,686274,243408
1437.47995224942,0.452739794785091,684842,241463
1440.69447423629,0.453598696625169,684666,240924
1443.90466695905,0.454545485277696,683466,239978
1447.11053041767,0.455341822939318,682161,239081
1450.31206461218,0.455361604953403,680617,238529
1453.50926954256,0.455176748850794,678810,237997
1457.76547503888,0.455057024286399,675666,236960
1460.95257835298,0.455062876819593,672875,235978
1464.13535240295,0.454085841030402,669636,235371
1467.31379718879,0.454256516114073,666111,234040
1470.48791271052,0.45316077552376,661832,233124
1473.65769896812,0.452065005546403,657491,232180
1476.8231559616,0.451107482081987,652997,231102
1481.03703087538,0.449571117933329,646859,229741
1484.19238625257,0.44876430089196,641811,228372
1487.34341236563,0.447759452768865,636478,226999
1490.49010921458,0.446872438710103,631178,225569
1493.63247679939,0.446102435685856,625669,223997
1496.77051512009,0.444682766551379,619128,222381
1499.90422417666,0.443445591763132,613383,220946
1504.0757685079,0.441970622950253,604890,218628
1507.19937594819,0.441419791333306,597859,216361
1510.31865412435,0.439964241903606,590447,214396
1513.43360303639,0.43839527236447,583458,212625
1516.5442226843,0.438215880534467,575855,209941
1519.65051306809,0.437585613501597,568545,207577
1522.75247418776,0.436660218029508,560625,205122
1526.88168793646,0.435528411197076,550399,201906
1529.97354743984,0.43551743483749,542717,199093
1533.0610776791,0.434403866634131,533986,196393
1536.14427865423,0.434640830380599,526078,193379
1539.22315036524,0.433575588286762,517405,190658
1542.29769281213,0.4336973867099,508812,187439
1546.39034833045,0.433561806718158,497584,183360
1549.45478916105,0.432631008948788,488831,180521
1552.51490072752,0.432764088919284,480061,177228
1555.57068302988,0.432656349139342,471287,174032
1558.6221360681,0.432252374239826,462229,170846
1561.66925984221,0.43158457858353,452869,167644
1564.71205435219,0.432110892881934,443960,164147
1568.76237928798,0.431435281946887,431793,159897
1571.79507218167,0.431204329189839,422681,156606
1574.82343581124,0.431241906281154,413003,153007
1577.84747017669,0.431205443509339,404264,149782
1580.86717527801,0.430795480538455,394844,146430
1583.88255111521,0.431049810582763,386080,143096
1586.89359768829,0.430411915576997,376507,139753
1590.90159204153,0.43011470553578,364627,135436
1593.90253699832,0.430331048692471,355435,131956
1596.89915269099,0.429490921784247,346855,129020
1599.89143911953,0.428261577040129,337666,125958
1602.87939628395,0.427715077544176,328762,122791
1605.86302418424,0.427809009106288,319977,119484
1609.83446030711,0.426585750863261,308040,115351
1612.80798659112,0.426235170168106,299469,112232
1615.777183611,0.425163136286709,290663,109201
1618.74205136676,0.425888089114011,281809,105698
1621.7025898584,0.425953376700728,273393,102526
1624.65879908592,0.425549377278295,264992,99468
1627.61067904931,0.425292326444957,256411,96304
1631.53978458964,0.42468499881494,245585,92367
1634.48156293674,0.424784142072697,237490,89302
1637.41901201972,0.424135285748206,229440,86404
1640.35213183857,0.423466165434232,221549,83561
1643.28092239331,0.424665331355738,213816,80422
1646.20538368392,0.425550367893071,206132,77374
1649.1255157104,0.426911800658262,198850,74407
1653.01229066819,0.426058365904461,188983,70854
1655.92232107839,0.428700656098366,181584,67667
1658.82802222446,0.428909721921523,174248,64902
1661.72939410641,0.429213977934191,166877,62113
1664.62643672424,0.431162477534402,158762,58828
1667.51915007795,0.431273259309229,149700,55456
1671.36936680536,0.432424404881676,138486,51166
1674.25197854278,0.434260245227739,128445,47256
1677.13026101607,0.433758292617279,117779,43382
1680.00421422524,0.433297878343763,105591,38934
1682.87383817029,0.437845509043954,93871,34252
1685.73913285121,0.435988068998032,81878,30004
1688.60009826801,0.437402756932231,70222,25649
1692.40798441288,0.440325788046247,56697,20570
1695.25884821339,0.441395206935961,47912,17340
1698.10538274978,0.432131097738769,40220,14870
1700.94758802205,0.434114139267807,34247,12604
