***Scan Config Information***,,,,,,,***Reference Scan Information***,,,,,,,,
Scan Config Name:,FolHerbario,,,,,,Scan Config Name:,Local New Reference,,,,,,,
Scan Config Type:,Slew,Num Section:,1,,,,Scan Config Type:,Slew,Num Section:,1,,,,,
Section Config Type:,Column,,,,,,Section Config Type:,Column,,,,,,,
Start Wavelength (nm):,900,,,,,,Start Wavelength (nm):,900,,,,,,,
End Wavelength (nm):,1700,,,,,,End Wavelength (nm):,1700,,,,,,,
Pattern Width (nm):,7.03,,,,,,Pattern Width (nm):,7.03,,,,,,,
Exposure (ms):,0.635,,,,,,Exposure (ms):,0.635,,,,,,,
Digital Resolution:,228,,,,,,Digital Resolution:,228,,,,,,,
Num Repeats:,20,,,,,,Num Repeats:,20,,,,,,,
PGA Gain:,64,(FixedPGA),,,,,PGA Gain:,64,(AutoPGA),,,,,,
System Temp (C):,39.25,,,,,,System Temp (C):,39.13,,,,,,,
Humidity (%):,45.73,,,,,,Humidity (%):,45.32,,,,,,,
Lamp ADC:,3077,3079,831,849,,,Lamp ADC:,3077,3078,831,849,,,,
Data Date-Time:,2025/04/03T10:45:49,,,,,,Data Date-Time:,2025/04/03T10:41:54,,,,,,,
Total Measurement Time in sec:,6.4745502,,,,,,,,,,,,,,
,,,,,,,,,,,,,,,
***General Information***,,,,,,,***Calibration Coefficients***,,,,,,,,
Model Name:,NIR-S-G1,,,,,,Shift Vector Coefficients:,-5.74589567087503,0.0468271937173058,-9.53581739805986E-05,,,,,
Serial Number:,C23R002,(95UB125GC0VC23R002),,,,,Pixel to Wavelength Coefficients:,1756.1983651918,-0.919335509971685,-0.000241825006214287,,,,,
GUI Version:,3.13.1,Revision:,930,,,,Versions (Cal/Ref/Cfg):,1,3,1,,,,,
TIVA Version:,2.4.10,,,,,,***Lamp Usage ***,,,,,,,,
DLPC Version:,2.3.1,,,,,,Total Time(hh:mm:ss):,7min 7sec ,,,,,,,
UUID:,DE:67:0C:88:67:76:74:21,,,,,,***Device/Error/Activation Status***,,,,,,,,
Main Board Version:,F,,,,,,Device Status:,0x00000001,Activation Status:,Activated,,,,,
Detector Board Version:,C,,,,,,Error status:,0x00000000,Error Code:,0x00000000000000000000000000000000,,,,,
,,,,,,,,,Error Details:,Not found,,,,,
***Scan Data***,,,,,,,,,,,,,,,
Wavelength (nm),Absorbance (AU),Reference Signal (unitless),Sample Signal (unitless)
901.701099874012,0.581806229397007,90908,23812
905.577788882674,0.568466178386146,98728,26667
909.450125041225,0.560464892663303,106474,29294
913.318108349663,0.555969089419979,115885,32215
917.18173880799,0.546515147681432,126895,36052
921.041016416205,0.537003362329048,139969,40647
926.179948793651,0.525941932723751,162388,48374
930.029069751605,0.519406249981191,183239,55413
933.873837859447,0.514103977785723,206025,63069
937.714253117177,0.507295419246062,227116,70624
941.550315524795,0.49835156651221,245153,77819
945.382025082302,0.49327849823177,260543,83676
949.209381789697,0.48680751981725,273660,89208
954.305752966049,0.477898297440243,288654,96046
958.122953023182,0.470904820725181,298818,101042
961.935800230204,0.464408285765165,307958,105702
965.744294587114,0.459634949295239,317559,110202
969.548436093912,0.453792838874299,326124,114707
973.348224750598,0.44820752922518,334764,119270
977.143660557173,0.442426632510852,343089,123874
982.197470532431,0.435242005543063,353748,129853
985.982749688744,0.428861300773031,361340,134603
989.763675994946,0.423842269567844,368758,138963
993.540249451036,0.417935911757481,376180,143701
997.312470057013,0.412246893088986,382937,148211
1001.08033781288,0.407389768042327,389800,152564
1004.84385271863,0.402001745797059,396019,156933
1009.8551014928,0.395955277074498,404216,162427
1013.60845974829,0.390862502149193,409706,166575
1017.35746515367,0.386591834772857,414304,170109
1021.10211770894,0.381462204445116,417967,173652
1024.8424174141,0.376444348499644,421888,177318
1028.57836426914,0.372317450629146,425039,180348
1032.30995827408,0.36774917881989,427301,183225
1037.27864584715,0.361531586561047,429662,186894
1041.00008320182,0.358163057988648,432408,189553
1044.71716770638,0.353102640517565,433870,192423
1048.42989936083,0.348575779785117,435253,195059
1052.13827816517,0.344376612435469,437025,197756
1055.8423041194,0.340738945383275,438567,200123
1059.54197722351,0.335543392797383,439915,203154
1064.46810359549,0.330674048051738,440509,205722
1068.15762004934,0.327372160651222,439185,206669
1071.84278365308,0.324696240068603,436124,206497
1075.52359440671,0.321960732964138,433054,206339
1079.20005231022,0.318652975381813,430668,206771
1082.87215736363,0.316091415596759,430444,207886
1086.53990956692,0.313262005185688,431041,209535
1091.42347473781,0.309484586170871,432488,212075
1095.08107029084,0.307080537035122,435047,214514
1098.73431299376,0.304490480150218,437730,217128
1102.38320284657,0.301701834524864,441204,220261
1106.02773984926,0.29846369930151,444605,223620
1109.66792400185,0.29612807278672,448153,226620
1113.30375530432,0.293814430588317,452987,230288
1118.14475927411,0.291140630556725,459354,234967
1121.77043392632,0.28884844527111,464281,238744
1125.39175572842,0.286759738707455,469820,242757
1129.00872468041,0.285493403237897,475675,246500
1132.62134078229,0.283564851234293,481058,250399
1136.22960403405,0.281358226397285,486669,254610
1139.83351443571,0.28006575820906,492377,258364
1144.6319572044,0.278310055661941,499989,263421
1148.22571095579,0.276896269520574,505644,267269
1151.81511185707,0.27525200396499,511308,271288
1155.40015990824,0.27419864459689,516979,274963
1158.9808551093,0.272685803727204,522599,278922
1162.55719746024,0.272229517860379,528573,282407
1166.12918696107,0.271289784894,533984,285916
1170.88506852868,0.269755301674752,541430,290929
1174.44690137925,0.268685435690161,547843,295101
1178.00438137971,0.267758855851897,553739,298914
1181.55750853005,0.266901002301879,559365,302548
1185.10628283029,0.265976877390743,566218,306907
1188.65070428041,0.264899984287316,572409,311033
1192.19077288043,0.264230402757697,579298,315262
1196.90409324693,0.262444842145238,588084,321362
1200.43400519669,0.261436076195288,594866,325824
1203.95956429632,0.260129306054045,601714,330568
1207.48077054585,0.258680108831702,608706,335527
1210.99762394527,0.25746116687121,615926,340461
1214.51012449457,0.256180970575653,623076,345430
1218.01827219376,0.254781265399301,630345,350588
1222.68903135918,0.252806001308441,639453,357275
1226.18702240811,0.25113527586648,646187,362429
1229.68066060693,0.249562084830623,652621,367366
1233.16994595564,0.248802009846203,660595,372506
1236.65487845423,0.247356373425017,668736,378354
1240.13545810271,0.246124842774132,678124,384755
1243.61168490109,0.245366293149995,688704,391441
1248.23988286541,0.24359213092499,700976,400047
1251.70595301352,0.242705221868291,708597,405223
1255.16767031152,0.241750761454999,715769,410225
1258.6250347594,0.240399328550802,723044,415686
1262.07804635718,0.239836068512023,730195,420342
1265.52670510484,0.239214407604765,736306,424467
1268.97101100239,0.23842344757071,742242,428669
1273.55664776562,0.237256928207571,750904,434838
1276.99079701291,0.236613118528143,756613,438794
1280.42059341009,0.236021050175516,761597,442287
1283.84603695715,0.234804760612973,766667,446480
1287.26712765411,0.234242060850681,772275,450329
1290.68386550095,0.233694236664725,777392,453885
1294.09625049768,0.232955629571879,782064,457390
1298.63932605982,0.232300243869544,788762,462004
1302.04155440629,0.231815980116297,793173,465106
1305.43942990264,0.231272797998907,797310,468117
1308.83295254889,0.230839408772858,801245,470897
1312.22212234502,0.230316830859753,805402,473910
1315.60693929105,0.230118171863609,809063,476282
1320.11325745224,0.229890657741351,812967,478831
1323.487917748,0.229592406910846,815037,480380
1326.85822519365,0.229475220568251,818028,482273
1330.22417978919,0.229352076971627,820399,483808
1333.58578153461,0.229612247393834,821834,484364
1336.94303042993,0.229945913730383,823116,484747
1340.29592647513,0.230178107954322,824669,485402
1344.75968343522,0.230881711862375,825870,485322
1348.10242283016,0.231445920428631,825192,484294
1351.44080937499,0.232039847478185,823866,482855
1354.77484306971,0.23264144336471,822182,481201
1358.10452391432,0.233424914665234,820553,479382
1361.42985190881,0.233884206923893,818522,477690
1364.75082705319,0.234747068777793,817899,476379
1369.17202281219,0.235692826980732,818968,475964
1372.48284130632,0.236064812217617,818528,475301
1375.78930695032,0.236694702103857,816422,473391
1379.09141974422,0.237628388001224,813281,470557
1382.38917968801,0.238378150291961,809565,467599
1385.68258678168,0.23974835097028,806529,464378
1388.97164102524,0.241107949676831,803528,461204
1393.35027558315,0.2439036498834,797786,454970
1396.62917317645,0.2467186027832,794557,450201
1399.90371791964,0.249714387135616,791939,445633
1403.17390981272,0.25358353606014,791004,441159
1406.43974885568,0.258180659293368,791441,436755
1409.70123504853,0.263254864425184,792305,432153
1412.95836839128,0.268731501906518,792523,426855
1417.29444174809,0.276430414129713,792741,419470
1420.54141844057,0.282219506711988,792939,414019
1423.78404228294,0.287319297007118,792831,409130
1427.0223132752,0.291804001181772,791956,404480
1430.25623141734,0.29586858717551,791185,400322
1433.48579670937,0.299268258435938,790939,397077
1436.71100915129,0.302141632808647,789793,393887
1441.00452130702,0.304055826034731,788130,391329
1444.21957709868,0.305405038295767,786764,389439
1447.43028004022,0.306099869222216,785029,387959
1450.63663013166,0.30640460761686,782650,386512
1453.83862737298,0.306473707327194,780002,385143
1457.0362717642,0.306178808050701,776712,383779
1460.2295633053,0.306394723208531,773494,381999
1464.48051425993,0.306501180298956,768681,379529
1467.66364915076,0.305823854641511,764559,378083
1470.84243119149,0.305299212274296,760677,376618
1474.01686038211,0.304252939777681,756191,375300
1477.18693672261,0.303439122050385,751465,373654
1480.35266021301,0.302345767617442,746093,371918
1483.51403085329,0.301640315988491,740568,369764
1487.72242060682,0.300206057720335,733022,367207
1490.87363459684,0.299268870250514,726982,364968
1494.02049573675,0.298521013457608,720935,362556
1497.16300402654,0.297341088843668,714872,360485
1500.30115946623,0.295801826518274,708361,358470
1503.4349620558,0.294947061521834,701594,355745
1506.56441179526,0.293390770339777,694201,353260
1510.7302403477,0.291744127074556,684906,349854
1513.8495334369,0.290786686085056,677227,346695
1516.96447367598,0.28967530766208,668443,343075
1520.07506106496,0.288492506234882,660615,339982
1523.18129560382,0.287682321085373,652904,336641
1526.28317729258,0.286970572650501,644901,333060
1529.38070613122,0.286041871615424,636216,329278
1533.50397348256,0.28545659718521,624600,323702
1536.59134567094,0.284720621263911,616132,319855
1539.67436500921,0.284610516680173,607121,315257
1542.75303149736,0.284172316391266,597861,310762
1545.82734513541,0.283164068615339,588465,306589
1548.89730592334,0.283156481749532,578975,301650
1551.96291386116,0.282695550782439,569591,297076
1556.04362001141,0.28258109418646,555935,290030
1559.09907129897,0.282226755329743,546116,285140
1562.15016973641,0.282037907489207,536205,280087
1565.19691532375,0.281788970495676,526201,275019
1568.23930806097,0.281115948594826,515693,269945
1571.27734794808,0.281559972801472,505785,264488
1574.31103498508,0.280902044232118,495688,259601
1578.34917993424,0.280587115862114,481898,252562
1581.37271032098,0.280343791869598,471975,247500
1584.39188785761,0.279776377121791,461684,242420
1587.40671254412,0.27873570579998,451391,237584
1590.41718438052,0.278921429083463,441035,232034
1593.42330336681,0.277998178843201,430228,226830
1596.42506950299,0.277411227518756,420485,221993
1600.42065325106,0.276212343398674,406774,215348
1603.41226273698,0.275491323920762,396395,210202
1606.39951937278,0.274608158112407,386052,205134
1609.38242315848,0.274627167995463,376830,200225
1612.36097409406,0.273747416648421,366789,195285
1615.33517217953,0.273576422222737,356831,190058
1618.30501741489,0.273206399770303,347566,185281
1622.25803996186,0.272957183622993,334901,178632
1625.21772854696,0.273204534866785,325643,173595
1628.17306428194,0.271694093723529,315732,168898
1631.12404716682,0.272200678102837,306346,163686
1634.07067720158,0.271560792050861,297306,159090
1637.01295438623,0.272469165891362,288241,153917
1639.95087872077,0.271961462298082,278720,149007
1643.86134006665,0.272699576030691,266037,141985
1646.78910775092,0.272986889672863,256664,136892
1649.71252258509,0.274613571284505,247600,131564
1652.63158456914,0.275281972566736,238557,126564
1655.54629370308,0.275864161430646,230010,121866
1658.45664998691,0.277376567940295,220797,116578
1661.36265342063,0.278132906774847,211925,111699
1665.23055356542,0.280708206521024,199375,104463
1668.12640034887,0.280463660838438,188762,98958
1671.01789428222,0.28267716451006,177692,92681
1673.90503536545,0.285216628316359,165657,85900
1676.78782359857,0.28512567068747,151904,78785
1679.66625898158,0.28660779597073,137476,71059
1682.54034151448,0.289464396836208,122200,62749
1686.36568045817,0.290660186087551,102091,52279
1689.22960634081,0.290691256516148,87832,44974
1692.08917937333,0.294350352654051,75100,38132
1694.94439955575,0.296418360197844,63605,32142
1697.79526688805,0.297924543180205,54207,27298
1700.64178137024,0.295968668087905,46066,23303
