***Scan Config Information***,,,,,,,***Reference Scan Information***,,,,,,,,
Scan Config Name:,FolHerbario,,,,,,Scan Config Name:,Local New Reference,,,,,,,
Scan Config Type:,Slew,Num Section:,1,,,,Scan Config Type:,Slew,Num Section:,1,,,,,
Section Config Type:,Column,,,,,,Section Config Type:,Column,,,,,,,
Start Wavelength (nm):,900,,,,,,Start Wavelength (nm):,900,,,,,,,
End Wavelength (nm):,1700,,,,,,End Wavelength (nm):,1700,,,,,,,
Pattern Width (nm):,7.03,,,,,,Pattern Width (nm):,7.03,,,,,,,
Exposure (ms):,0.635,,,,,,Exposure (ms):,0.635,,,,,,,
Digital Resolution:,228,,,,,,Digital Resolution:,228,,,,,,,
Num Repeats:,20,,,,,,Num Repeats:,20,,,,,,,
PGA Gain:,64,(FixedPGA),,,,,PGA Gain:,64,(AutoPGA),,,,,,
System Temp (C):,40.31,,,,,,System Temp (C):,40.23,,,,,,,
Humidity (%):,46.61,,,,,,Humidity (%):,47.35,,,,,,,
Lamp ADC:,3077,3079,831,849,,,Lamp ADC:,3078,3078,831,849,,,,
Data Date-Time:,2025/04/03T10:56:01,,,,,,Data Date-Time:,2025/04/03T10:54:30,,,,,,,
Total Measurement Time in sec:,6.4767886,,,,,,,,,,,,,,
,,,,,,,,,,,,,,,
***General Information***,,,,,,,***Calibration Coefficients***,,,,,,,,
Model Name:,NIR-S-G1,,,,,,Shift Vector Coefficients:,-5.74589567087503,0.0468271937173058,-9.53581739805986E-05,,,,,
Serial Number:,C23R002,(95UB125GC0VC23R002),,,,,Pixel to Wavelength Coefficients:,1756.1983651918,-0.919335509971685,-0.000241825006214287,,,,,
GUI Version:,3.13.1,Revision:,930,,,,Versions (Cal/Ref/Cfg):,1,3,1,,,,,
TIVA Version:,2.4.10,,,,,,***Lamp Usage ***,,,,,,,,
DLPC Version:,2.3.1,,,,,,Total Time(hh:mm:ss):,8min 27sec ,,,,,,,
UUID:,DE:67:0C:88:67:76:74:21,,,,,,***Device/Error/Activation Status***,,,,,,,,
Main Board Version:,F,,,,,,Device Status:,0x00000001,Activation Status:,Activated,,,,,
Detector Board Version:,C,,,,,,Error status:,0x00000000,Error Code:,0x00000000000000000000000000000000,,,,,
,,,,,,,,,Error Details:,Not found,,,,,
***Scan Data***,,,,,,,,,,,,,,,
Wavelength (nm),Absorbance (AU),Reference Signal (unitless),Sample Signal (unitless)
901.701099874012,0.190522073102765,90814,58564
905.577788882674,0.187974330619506,98589,63952
909.450125041225,0.186879046357995,106506,69262
913.318108349663,0.185783531734353,115473,75283
917.18173880799,0.184936497284681,126904,82897
921.041016416205,0.183073920358399,139784,91703
926.179948793651,0.182123064694631,162223,106657
930.029069751605,0.181002276887149,182892,120557
933.873837859447,0.179214501002446,205143,135782
937.714253117177,0.178256808313544,226681,150369
941.550315524795,0.177406853059638,244819,162719
945.382025082302,0.176520838624427,260455,173465
949.209381789697,0.175302995064365,273574,182714
954.305752966049,0.174656585029051,289067,193349
958.122953023182,0.173577689399609,299165,200601
961.935800230204,0.172626185718888,308531,207335
965.744294587114,0.171853701690593,317641,213837
969.548436093912,0.171702000584011,326692,220007
973.348224750598,0.170824441964316,335010,226065
977.143660557173,0.170176238990625,343433,232095
982.197470532431,0.168944984693433,353896,239845
985.982749688744,0.169008249799081,362070,245349
989.763675994946,0.168269541833787,369525,250827
993.540249451036,0.167135215617066,376437,256187
997.312470057013,0.166489271183709,383237,261203
1001.08033781288,0.165837624690128,390569,266600
1004.84385271863,0.16535911309732,396550,270981
1009.8551014928,0.1642808542224,404696,277235
1013.60845974829,0.163676600715813,410024,281276
1017.35746515367,0.163010656000816,414931,285079
1021.10211770894,0.162194703120401,418801,288279
1024.8424174141,0.161147021361666,422531,291549
1028.57836426914,0.160730023162248,425861,294129
1032.30995827408,0.159974265123237,428111,296198
1037.27864584715,0.159443917092749,430724,298370
1041.00008320182,0.15866512004267,432683,300265
1044.71716770638,0.158705377617931,434611,301575
1048.42989936083,0.157940115132686,435998,303071
1052.13827816517,0.157647933563077,437509,304326
1055.8423041194,0.156982471715771,438965,305807
1059.54197722351,0.156899001910517,440765,307120
1064.46810359549,0.156100815054215,441010,307856
1068.15762004934,0.155565229817658,439598,307249
1071.84278365308,0.155144328392794,436828,305609
1075.52359440671,0.154693827496949,433318,303468
1079.20005231022,0.154231334162894,431613,302596
1082.87215736363,0.154076159096848,430984,302263
1086.53990956692,0.153441208453819,431603,303140
1091.42347473781,0.153242060168946,433342,304501
1095.08107029084,0.152312372708358,435602,306745
1098.73431299376,0.15241634449551,438023,308376
1102.38320284657,0.152278812382974,441944,311235
1106.02773984926,0.152394834259903,445728,313816
1109.66792400185,0.151950880020243,449403,316727
1113.30375530432,0.152065863364878,453970,319861
1118.14475927411,0.151782908529724,460220,324476
1121.77043392632,0.151843640798302,465167,327918
1125.39175572842,0.151928555904526,470326,331490
1129.00872468041,0.152571125130862,476007,334998
1132.62134078229,0.152341182287129,481849,339289
1136.22960403405,0.152576310021968,487474,343064
1139.83351443571,0.153191172662856,492960,346434
1144.6319572044,0.153567518706474,500749,351603
1148.22571095579,0.153833799298855,506326,355301
1151.81511185707,0.154600904554871,512142,358748
1155.40015990824,0.154772334498898,517317,362230
1158.9808551093,0.15557735247453,523462,365854
1162.55719746024,0.156376566636023,529469,369372
1166.12918696107,0.157066721894275,534578,372344
1170.88506852868,0.15804825749311,542460,376981
1174.44690137925,0.158494613001508,548503,380789
1178.00438137971,0.159208720873648,554480,384306
1181.55750853005,0.159738997891784,560290,387859
1185.10628283029,0.160088217062167,566794,392046
1188.65070428041,0.160666096371321,573445,396119
1192.19077288043,0.1607316337429,580005,400590
1196.90409324693,0.16102463891007,589049,406562
1200.43400519669,0.160585081921335,595389,411354
1203.95956429632,0.160450720086124,602454,416364
1207.48077054585,0.160178874430682,609741,421664
1210.99762394527,0.159738470580085,616876,427031
1214.51012449457,0.159627768977508,623986,432063
1218.01827219376,0.158559122003057,631033,438019
1222.68903135918,0.157517306211641,640244,445480
1226.18702240811,0.156918290342759,647050,450837
1229.68066060693,0.156106937823001,653982,456519
1233.16994595564,0.155295926088783,661404,462563
1236.65487845423,0.15458526436765,669553,469029
1240.13545810271,0.154294317727903,679326,476194
1243.61168490109,0.153570528868624,689013,483790
1248.23988286541,0.153185806754481,701945,493307
1251.70595301352,0.152865799129488,709446,498946
1255.16767031152,0.152417831629435,716713,504577
1258.6250347594,0.152093962953766,723910,510024
1262.07804635718,0.151977264007008,731063,515202
1265.52670510484,0.151794113202496,736868,519512
1268.97101100239,0.151351854409703,742993,524364
1273.55664776562,0.151487061460793,751774,530396
1276.99079701291,0.150698447078385,756989,535046
1280.42059341009,0.150901530127026,762259,538519
1283.84603695715,0.1506371538995,767554,542590
1287.26712765411,0.150455572394995,773189,546802
1290.68386550095,0.150356109398225,778220,550486
1294.09625049768,0.150148820448568,782944,554092
1298.63932605982,0.149802126978753,789414,559117
1302.04155440629,0.149980117132288,794177,562260
1305.43942990264,0.149907176750747,798334,565298
1308.83295254889,0.150038191547996,802204,567867
1312.22212234502,0.150047345685079,806394,570821
1315.60693929105,0.150343749139507,810097,573051
1320.11325745224,0.15056605089213,813977,575501
1323.487917748,0.150747777479776,816201,576832
1326.85822519365,0.151350126385079,818704,577799
1330.22417978919,0.151811201826926,821185,578935
1333.58578153461,0.152386257521034,822702,579237
1336.94303042993,0.153247346535452,824174,579124
1340.29592647513,0.154349370820702,825820,578810
1344.75968343522,0.155237412265653,826308,577969
1348.10242283016,0.156639409289675,826236,576056
1351.44080937499,0.157832416847861,824801,573478
1354.77484306971,0.159128841730661,822743,570342
1358.10452391432,0.160382028076043,820967,567471
1361.42985190881,0.16154265034622,818905,564535
1364.75082705319,0.162492327966869,818408,562960
1369.17202281219,0.163948745067635,818835,561368
1372.48284130632,0.164970118527114,819086,560221
1375.78930695032,0.166105775671592,817003,557337
1379.09141974422,0.167231609557153,813286,553365
1382.38917968801,0.168887945941144,810156,549137
1385.68258678168,0.170601879935955,806998,544842
1388.97164102524,0.173002963215099,804046,539856
1393.35027558315,0.176528053097481,798309,531671
1396.62917317645,0.179785471253585,794849,525411
1399.90371791964,0.183868763109008,792497,518954
1403.17390981272,0.188685509100133,791680,512701
1406.43974885568,0.193782640392564,792074,506971
1409.70123504853,0.200225345468896,793267,500258
1412.95836839128,0.206903029524274,793586,492823
1417.29444174809,0.215969438999284,793490,482583
1420.54141844057,0.222913122418712,793499,474934
1423.78404228294,0.22934811766238,793803,468128
1427.0223132752,0.235191318053031,792975,461390
1430.25623141734,0.240612051710985,792394,455333
1433.48579670937,0.244960419791034,791665,450382
1436.71100915129,0.24853053638126,790306,445928
1441.00452130702,0.252861234396973,789353,440971
1444.21957709868,0.254912005595207,787789,438024
1447.43028004022,0.256030172625317,785624,435697
1450.63663013166,0.257258832016211,783434,433255
1453.83862737298,0.258157305674569,780849,430933
1457.0362717642,0.258713504678008,777938,428777
1460.2295633053,0.25925148173471,774488,426347
1464.48051425993,0.259186945716797,769389,423603
1467.66364915076,0.25930587789257,765670,421440
1470.84243119149,0.258842919568184,761504,419594
1474.01686038211,0.258091783022216,757302,418001
1477.18693672261,0.257749980563356,752414,415630
1480.35266021301,0.25679790326916,747020,413556
1483.51403085329,0.25572635779138,741224,411361
1487.72242060682,0.254724166028533,734054,408323
1490.87363459684,0.25309361634521,727680,406300
1494.02049573675,0.252406959334277,721815,403663
1497.16300402654,0.251127855129937,715563,401347
1500.30115946623,0.249983255387284,709435,398960
1503.4349620558,0.248853558782135,702461,396067
1506.56441179526,0.247286024143956,695346,393473
1510.7302403477,0.245973292877788,685844,389271
1513.8495334369,0.244607886489974,678185,386136
1516.96447367598,0.243575808002503,669309,381989
1520.07506106496,0.24235685788901,661260,378456
1523.18129560382,0.241743606019391,653599,374600
1526.28317729258,0.241104873341746,645619,370571
1529.38070613122,0.240103734729253,636931,366428
1533.50397348256,0.238770691145305,625254,360816
1536.59134567094,0.238563045942171,616688,356043
1539.67436500921,0.238244225674642,607424,350952
1542.75303149736,0.237917182315744,598494,346053
1545.82734513541,0.237767043915591,589392,340908
1548.89730592334,0.237117758496632,579659,335780
1551.96291386116,0.237279091344548,570276,330222
1556.04362001141,0.237014279383292,556513,322449
1559.09907129897,0.236554086112823,546524,316997
1562.15016973641,0.236707244727465,536486,311065
1565.19691532375,0.236380613421091,526399,305446
1568.23930806097,0.236407001180869,516047,299421
1571.27734794808,0.236475782081827,506062,293581
1574.31103498508,0.235898542450035,496118,288195
1578.34917993424,0.235447732300571,482489,280569
1581.37271032098,0.234942111092855,472154,274879
1584.39188785761,0.234473873905576,462028,269274
1587.40671254412,0.234703299269647,452061,263326
1590.41718438052,0.233831726364456,441233,257535
1593.42330336681,0.232420376138891,430566,252127
1596.42506950299,0.231851113866646,420852,246762
1600.42065325106,0.231778631926859,407152,238769
1603.41226273698,0.230159863701937,396815,233576
1606.39951937278,0.229853621257661,386828,227858
1609.38242315848,0.228758805063325,376896,222568
1612.36097409406,0.228325977708919,367228,217075
1615.33517217953,0.227699130143898,357431,211589
1618.30501741489,0.22745063185251,347691,205941
1622.25803996186,0.226766532503784,335206,198859
1625.21772854696,0.22638718600961,325775,193433
1628.17306428194,0.225781665542269,316177,187996
1631.12404716682,0.225768370734161,307042,182570
1634.07067720158,0.22510392526698,297698,177285
1637.01295438623,0.225112659589047,288401,171745
1639.95087872077,0.224035111371183,278661,166357
1643.86134006665,0.224488686723977,266381,158860
1646.78910775092,0.224934215730233,257085,153159
1649.71252258509,0.225384903176664,247660,147391
1652.63158456914,0.227152296643167,238817,141551
1655.54629370308,0.227980189807704,230307,136247
1658.45664998691,0.229955509372855,221593,130497
1661.36265342063,0.230252830814767,212348,124967
1665.23055356542,0.232263288827513,199999,117156
1668.12640034887,0.232330982925259,189791,111159
1671.01789428222,0.234141766712035,179059,104437
1673.90503536545,0.235880338112651,167471,97288
1676.78782359857,0.23739521134073,154268,89306
1679.66625898158,0.236084698926366,139719,81128
1682.54034151448,0.238759879306356,125309,72314
1686.36568045817,0.241958835390963,105202,60265
1689.22960634081,0.239654301051193,90740,52257
1692.08917937333,0.244255385614176,77525,44176
1694.94439955575,0.244166123400789,65822,37515
1697.79526688805,0.244434159270496,55694,31723
1700.64178137024,0.247435086137181,47501,26870
