***Scan Config Information***,,,,,,,***Reference Scan Information***,,,,,,,,
Scan Config Name:,FolHerbario,,,,,,Scan Config Name:,Local New Reference,,,,,,,
Scan Config Type:,Slew,Num Section:,1,,,,Scan Config Type:,Slew,Num Section:,1,,,,,
Section Config Type:,Column,,,,,,Section Config Type:,Column,,,,,,,
Start Wavelength (nm):,900,,,,,,Start Wavelength (nm):,900,,,,,,,
End Wavelength (nm):,1700,,,,,,End Wavelength (nm):,1700,,,,,,,
Pattern Width (nm):,7.03,,,,,,Pattern Width (nm):,7.03,,,,,,,
Exposure (ms):,0.635,,,,,,Exposure (ms):,0.635,,,,,,,
Digital Resolution:,228,,,,,,Digital Resolution:,228,,,,,,,
Num Repeats:,20,,,,,,Num Repeats:,20,,,,,,,
PGA Gain:,64,(FixedPGA),,,,,PGA Gain:,64,(AutoPGA),,,,,,
System Temp (C):,41.83,,,,,,System Temp (C):,42.09,,,,,,,
Humidity (%):,41.43,,,,,,Humidity (%):,41.6,,,,,,,
Lamp ADC:,3077,3078,831,849,,,Lamp ADC:,3077,3078,831,849,,,,
Data Date-Time:,2025/04/03T11:40:17,,,,,,Data Date-Time:,2025/04/03T11:38:41,,,,,,,
Total Measurement Time in sec:,6.4730148,,,,,,,,,,,,,,
,,,,,,,,,,,,,,,
***General Information***,,,,,,,***Calibration Coefficients***,,,,,,,,
Model Name:,NIR-S-G1,,,,,,Shift Vector Coefficients:,-5.74589567087503,0.0468271937173058,-9.53581739805986E-05,,,,,
Serial Number:,C23R002,(95UB125GC0VC23R002),,,,,Pixel to Wavelength Coefficients:,1756.1983651918,-0.919335509971685,-0.000241825006214287,,,,,
GUI Version:,3.13.1,Revision:,930,,,,Versions (Cal/Ref/Cfg):,1,3,1,,,,,
TIVA Version:,2.4.10,,,,,,***Lamp Usage ***,,,,,,,,
DLPC Version:,2.3.1,,,,,,Total Time(hh:mm:ss):,14min 4sec ,,,,,,,
UUID:,DE:67:0C:88:67:76:74:21,,,,,,***Device/Error/Activation Status***,,,,,,,,
Main Board Version:,F,,,,,,Device Status:,0x00000001,Activation Status:,Activated,,,,,
Detector Board Version:,C,,,,,,Error status:,0x00000000,Error Code:,0x00000000000000000000000000000000,,,,,
,,,,,,,,,Error Details:,Not found,,,,,
***Scan Data***,,,,,,,,,,,,,,,
Wavelength (nm),Absorbance (AU),Reference Signal (unitless),Sample Signal (unitless)
901.701099874012,0.224324911235592,91170,54391
905.577788882674,0.222087379801376,98911,59314
909.450125041225,0.221945132650084,106652,63977
913.318108349663,0.219171614191485,115471,69711
917.18173880799,0.218777727408945,126403,76380
921.041016416205,0.219247107560606,139525,84218
926.179948793651,0.219268001522105,161519,97489
930.029069751605,0.219289877792463,182026,109861
933.873837859447,0.218255397347847,204253,123570
937.714253117177,0.217342990507367,225655,136805
941.550315524795,0.216829433694382,244198,148222
945.382025082302,0.215641177521098,260163,158345
949.209381789697,0.215739586813474,273890,166662
954.305752966049,0.215085885681814,289326,176320
958.122953023182,0.214520291402271,299318,182647
961.935800230204,0.214533835612813,309375,188778
965.744294587114,0.213557855547418,318220,194612
969.548436093912,0.212752591095612,327025,200368
973.348224750598,0.213393174706138,335445,205224
977.143660557173,0.212816090125691,343940,210701
982.197470532431,0.211840256770144,354323,217550
985.982749688744,0.211629640179018,362364,222595
989.763675994946,0.211924627211455,369830,227027
993.540249451036,0.211782462361365,377099,231565
997.312470057013,0.211398304309688,384276,236181
1001.08033781288,0.21117635380784,391596,240803
1004.84385271863,0.21035476052679,397501,244897
1009.8551014928,0.209594744460856,405844,250475
1013.60845974829,0.208894153232853,410986,254058
1017.35746515367,0.208233610950527,415879,257474
1021.10211770894,0.207956129974726,420188,260308
1024.8424174141,0.207508611265309,423893,262874
1028.57836426914,0.206679032486319,426818,265194
1032.30995827408,0.206472174553309,429771,267156
1037.27864584715,0.205945195147256,432105,268933
1041.00008320182,0.204956993743033,434188,270845
1044.71716770638,0.204728847540666,436123,272195
1048.42989936083,0.20385224464196,437180,273406
1052.13827816517,0.203583571396611,438872,274634
1055.8423041194,0.203334890071322,440483,275800
1059.54197722351,0.203234380528824,442179,276926
1064.46810359549,0.202556781974031,442443,277524
1068.15762004934,0.20178281338053,440842,277013
1071.84278365308,0.201503630923696,437828,275296
1075.52359440671,0.201181379106863,434800,273595
1079.20005231022,0.200636313052905,432596,272550
1082.87215736363,0.199835826979422,431999,272676
1086.53990956692,0.199810333084243,432780,273185
1091.42347473781,0.199830879793942,434662,274360
1095.08107029084,0.199418838714056,436529,275800
1098.73431299376,0.198896571471556,439340,277910
1102.38320284657,0.198793819368447,442710,280108
1106.02773984926,0.198921633265058,446437,282383
1109.66792400185,0.198583641184201,450306,285052
1113.30375530432,0.198834601748268,454951,287826
1118.14475927411,0.197860881518518,461283,292487
1121.77043392632,0.198109868041927,465906,295249
1125.39175572842,0.198597580843287,471439,298420
1129.00872468041,0.199018442353898,477116,301721
1132.62134078229,0.198891646814788,482750,305373
1136.22960403405,0.199407950939538,488389,308573
1139.83351443571,0.200092714723781,493825,311516
1144.6319572044,0.200656248462115,501609,316016
1148.22571095579,0.201513229833175,507581,319148
1151.81511185707,0.202013201473392,512788,322051
1155.40015990824,0.202528406652297,518431,325209
1158.9808551093,0.203277497226617,524262,328300
1162.55719746024,0.204328739246161,530210,331222
1166.12918696107,0.205150549553659,535830,334100
1170.88506852868,0.205902742966689,543092,338042
1174.44690137925,0.206714557064955,549357,341303
1178.00438137971,0.207315244506481,555525,344658
1181.55750853005,0.208080610733081,561189,347559
1185.10628283029,0.208941839752045,567794,350953
1188.65070428041,0.209102650689438,574449,354935
1192.19077288043,0.209160367252243,581047,358964
1196.90409324693,0.209466465831607,589836,364137
1200.43400519669,0.209580527357924,596271,368013
1203.95956429632,0.209337774440444,603390,372615
1207.48077054585,0.208982746135559,610644,377403
1210.99762394527,0.20821632951848,617522,382328
1214.51012449457,0.207156267785995,624867,387821
1218.01827219376,0.205889909667394,631996,393391
1222.68903135918,0.204957364309253,641442,400129
1226.18702240811,0.204031607147002,647625,404848
1229.68066060693,0.20334342809845,654753,409953
1233.16994595564,0.202506995539153,662251,415447
1236.65487845423,0.201875854194481,670531,421253
1240.13545810271,0.201178678251838,679941,427851
1243.61168490109,0.200675232434335,690160,434785
1248.23988286541,0.200117621245813,702672,443236
1251.70595301352,0.200182107429051,710609,448176
1255.16767031152,0.199348875062308,717389,453321
1258.6250347594,0.199221647602878,724961,458240
1262.07804635718,0.19888680891307,731750,462888
1265.52670510484,0.198742548635007,737942,466960
1268.97101100239,0.198543276557404,743707,470824
1273.55664776562,0.198222897013989,752285,476606
1276.99079701291,0.197946244780149,757920,480482
1280.42059341009,0.197999292637277,763042,483670
1283.84603695715,0.197776566975862,768671,487488
1287.26712765411,0.197305031359227,773734,491232
1290.68386550095,0.197526358621626,779228,494468
1294.09625049768,0.197375853068463,783840,497567
1298.63932605982,0.197100306274237,790292,501981
1302.04155440629,0.197336264364152,794869,504614
1305.43942990264,0.197018472297536,799005,507611
1308.83295254889,0.19696787886918,802834,510103
1312.22212234502,0.197292595651962,807265,512535
1315.60693929105,0.197136106311608,811019,515104
1320.11325745224,0.197895383837441,815039,516753
1323.487917748,0.197997293980239,816912,517819
1326.85822519365,0.19827125864917,819647,519225
1330.22417978919,0.198651984876562,822265,520427
1333.58578153461,0.19932207858124,824011,520728
1336.94303042993,0.200063980718734,825106,520530
1340.29592647513,0.200703340630415,826828,520849
1344.75968343522,0.201876463399017,827261,519716
1348.10242283016,0.202967851726429,827134,518332
1351.44080937499,0.204092428708816,825882,516209
1354.77484306971,0.205236654552228,824166,513781
1358.10452391432,0.206216071927686,822091,511333
1361.42985190881,0.207644545449798,820462,508644
1364.75082705319,0.208918818444542,819736,506705
1369.17202281219,0.210527771429082,820679,505412
1372.48284130632,0.211711018032049,820632,504008
1375.78930695032,0.212851275248179,818256,501231
1379.09141974422,0.214510018892713,814965,497312
1382.38917968801,0.215749624543137,811153,493575
1385.68258678168,0.21779205441906,808448,489621
1388.97164102524,0.219266961699359,805368,486102
1393.35027558315,0.222640383033244,800047,479154
1396.62917317645,0.225582687601501,796260,473666
1399.90371791964,0.229247284917609,793734,468196
1403.17390981272,0.233384661784835,792935,463290
1406.43974885568,0.238185997586411,793220,458361
1409.70123504853,0.243733381499929,794327,453175
1412.95836839128,0.249342381956073,794544,447482
1417.29444174809,0.257044194788265,794811,439764
1420.54141844057,0.262376369640668,794936,434466
1423.78404228294,0.267317482844397,794801,429478
1427.0223132752,0.271763757771703,794056,424705
1430.25623141734,0.276057032108762,793238,420094
1433.48579670937,0.279396187956042,792889,416693
1436.71100915129,0.282289020113349,791681,413296
1441.00452130702,0.284887676547256,790156,410039
1444.21957709868,0.286464806807934,788681,407790
1447.43028004022,0.287487896861562,786788,405854
1450.63663013166,0.288415660755945,784622,403873
1453.83862737298,0.288771438459251,781843,402113
1457.0362717642,0.289005317519205,779064,400468
1460.2295633053,0.289318304258546,775662,398432
1464.48051425993,0.289429053755683,770719,395792
1467.66364915076,0.289032573584505,766578,394025
1470.84243119149,0.288717173903875,762561,392245
1474.01686038211,0.288185447597174,758261,390511
1477.18693672261,0.287403870694108,753215,388611
1480.35266021301,0.286801223907202,748073,386494
1483.51403085329,0.285780302106891,742078,384299
1487.72242060682,0.284346178625556,734922,381852
1490.87363459684,0.284195359564186,728995,378904
1494.02049573675,0.282682860525381,722766,376977
1497.16300402654,0.281678106860712,716329,374485
1500.30115946623,0.281006976759529,710240,371876
1503.4349620558,0.279729868444209,703211,369280
1506.56441179526,0.27860391156796,695903,366391
1510.7302403477,0.277505825271836,686630,362424
1513.8495334369,0.276415441758736,679099,359350
1516.96447367598,0.275421188114345,669793,355238
1520.07506106496,0.274675361186997,662118,351771
1523.18129560382,0.273355003912745,654197,348621
1526.28317729258,0.272434651678762,646187,345083
1529.38070613122,0.272159917524873,637709,340771
1533.50397348256,0.271345584664749,626172,335234
1536.59134567094,0.270624170952839,617338,331054
1539.67436500921,0.270156773920229,608489,326660
1542.75303149736,0.269859635563096,599147,321865
1545.82734513541,0.268791431352033,589514,317470
1548.89730592334,0.268813027755282,580340,312514
1551.96291386116,0.268629302198429,570561,307378
1556.04362001141,0.268853995461492,557323,300091
1559.09907129897,0.268186728137101,547294,295144
1562.15016973641,0.268420687370808,537277,289586
1565.19691532375,0.268531287006472,527322,284148
1568.23930806097,0.267749931266334,516695,278923
1571.27734794808,0.268004189934772,506690,273362
1574.31103498508,0.267863253400026,496440,267919
1578.34917993424,0.268060170952279,483088,260595
1581.37271032098,0.267932579002869,473009,255233
1584.39188785761,0.267871482257259,462966,249849
1587.40671254412,0.26745208998781,452469,244420
1590.41718438052,0.266101369227238,441881,239444
1593.42330336681,0.266259915108077,431501,233734
1596.42506950299,0.265822282042714,421491,228542
1600.42065325106,0.264808617031583,407590,221521
1603.41226273698,0.264242533086108,397184,216147
1606.39951937278,0.263636248137244,387009,210904
1609.38242315848,0.263214400996457,377513,205929
1612.36097409406,0.263017843129499,367658,200644
1615.33517217953,0.262778789908005,357775,195358
1618.30501741489,0.262069190935777,348091,190381
1622.25803996186,0.262292834181805,335754,183539
1625.21772854696,0.261477137264886,326356,178737
1628.17306428194,0.262084815629742,316676,173193
1631.12404716682,0.262322938980398,307331,167990
1634.07067720158,0.262788314435917,298562,163022
1637.01295438623,0.262483037594579,288744,157772
1639.95087872077,0.262273160848092,279418,152750
1643.86134006665,0.26314981358176,266998,145666
1646.78910775092,0.263308552235449,257768,140579
1649.71252258509,0.26444436915268,248431,135133
1652.63158456914,0.26520238973532,239655,130132
1655.54629370308,0.265412225373057,230748,125235
1658.45664998691,0.267875128384785,222421,120033
1661.36265342063,0.269563110863749,213668,114862
1665.23055356542,0.271539564226142,201216,107677
1668.12640034887,0.273811772580316,192075,102249
1671.01789428222,0.274228855849239,181790,96681
1673.90503536545,0.277602482745981,170644,90051
1676.78782359857,0.27909696576367,158418,83312
1679.66625898158,0.281447445865673,145352,76028
1682.54034151448,0.283212437625409,130875,68178
1686.36568045817,0.287390658016618,111365,57459
1689.22960634081,0.29160456624546,96718,49420
1692.08917937333,0.293535791219418,82846,42144
1694.94439955575,0.296397477266876,70870,35815
1697.79526688805,0.301868681412752,60126,30005
1700.64178137024,0.300502267753212,50992,25527
